%%%     tilde D_1              tilde D_2             tilde D_3             tilde D_4             tilde D_5             tilde D_6             tilde S_6   
  0.09079511840820285   0.04178680954248452   0.03185876340531594 -0.006539393105468803  -0.08960159927159717   0.06389670330515405  -0.23696940228343422
-0.017951420165999803   0.07988658524747931   0.06908489232545048  0.020925985972871035  -0.07052383049861301   0.06228324127830865  -0.23684145415881233
 -0.00783250195314734  0.025912871182697392   0.08242773911832776  0.044111856505378605   -0.0498011741109892   0.06045199504865105  -0.23677078579028596
-0.015863631347644028  -0.02490706766367432    0.0696085701085171  0.060987621822392285 -0.027867578063124517  0.058391527545547106  -0.23675844240138244
 0.023906231201170566  -0.02859920269878968   0.03872209449033189    0.0703639174568083 -0.005182655948858513  0.056095061294507476   -0.2368054457945868
-0.011269737792968183  -0.01630986505408755  0.004818107964200672   0.07192623917102463   0.01777851768320616   0.05356055387124477   -0.2369128158420466
-0.000719002929690864 -0.004231185515756942 -0.020252238406093796    0.0661952000020479   0.04052499636613302   0.05079088975995583  -0.23708165927601943
 0.004065512939456198 0.0071604493209875926  -0.03178124018222562  0.054383536769988944   0.06255499410330281   0.04779389262810623    -0.237313145579035
-0.001113649414063179  0.010282671374509677 -0.031048845159489448    0.0383941989784105    0.0833769082650082  0.044581033766373054  -0.23760831781018538
-0.001252874755860125  0.005401243319451079  -0.02363840547852341  0.020631142459434537   0.10252556417582528   0.04116522266323335   -0.2379678923830115
0.0002500029296870234 -0.000847035790390404 -0.014709787434489602  0.003431838245700332   0.11957219216668125  0.037558911470818135   -0.2383921215874621
0.0023948952636745845 -0.006416619289106155  -0.00686024764968584 -0.011282521186442688   0.13413603812898725    0.0337732127818986  -0.23888075804877276
 -0.00002840942383072 -0.005838309213400901 -0.001431836682471943 -0.022108687805248547    0.1458861288642711   0.02981824869922973  -0.23943313443799022
-0.011289780029296675  0.004830998452607406 0.0013409037665080008 -0.028223394532568283   0.15454926821183748  0.025704208117594926  -0.24004820398611285
 0.017440294677735044  0.011119811598602945 0.0019105101714893401 -0.029346762779241132    0.1599317958444767   0.02144183105652196  -0.24072448056901352
-0.006320827636717035 0.0005656235675817478   0.00077671088131129 -0.025669879303172705    0.1619301279709703  0.017042223567334255  -0.24145997904674196
-0.005750310791019789  -0.01096976580375758 -0.000986819624955464  -0.01786586578229322    0.1605350506607736  0.012516915219261621  -0.24225220387745744
0.0025599582519562083 -0.006995251975540314 -0.002247432429030286 -0.007058309810361286   0.15582520032496142  0.007878058254971976  -0.24309822261640235
0.0056901223144535055  0.002946156989693009 -0.002623329653484035  0.005400668134774924     0.147942380056141  0.003138807747798407  -0.24399480558881959
-0.006713020019533232  0.007146714647118236 -0.002153297926281944  0.018128643946362096   0.13707965583935144 -0.001686189091341001   -0.2449385073951099
 0.001039960205078515  0.005985505382840985 -0.000966322666228003  0.029827825589754685   0.12348369956025161  -0.00658101887731348  -0.24592564919380397
 0.006175925292970394 -0.000376126865862876  0.001083104197392549     0.039371832240339   0.10745389035550074 -0.011529354213059116  -0.24695227100668815
-0.006951769775392154 -0.007748990720753488  0.004339115225076132   0.04586597231050036   0.08934273897113051  -0.01651497032761707  -0.24801409568234226
-0.000269600585938172 -0.007275019851868871  0.008626399941179332   0.04867687251135645   0.06955139387487186 -0.021521480603053048   -0.2491065652859251
 0.005994111572268182 -0.000916010184944806  0.012766201844964643   0.04744453926381824   0.04851250853808676   -0.0265313775443034   -0.2502249734892377
-0.003693156250001389  0.005163648168984977  0.014715734644351344   0.04215985123873046  0.026679030416678018 -0.031524542660499644   -0.2513645655575686
-0.004610738769533189  0.010224343935852415   0.01289682811084391   0.03319175220247189  0.004522538830634849  -0.03647716276620182   -0.2525205615433708
 0.008656192382815751    0.0075933274503366  0.007372028025265894   0.02122129031667961  -0.01747496813966639   -0.0413617115938344   -0.2536881584408784
0.0011419978027333657 -0.005780833157304309 -0.000203958536473911  0.007182643844877094  -0.03882991186359523  -0.04614741413874089   -0.2548625239507682
-0.013053779785158114 -0.013482556891386475 -0.007049662787189956  -0.00782167702451351  -0.05907090592336758  -0.05080056284982894   -0.2560388547378127
  0.01020721826172084  -0.00530559832608863 -0.010943573369981687 -0.022651174503176708  -0.07776460978365222 -0.055284743780442056  -0.25721251849761395
0.0006875468750002345 0.0056865084494376805  -0.01155321556451144  -0.03621157337453923  -0.09453276045618289  -0.05956135303506129  -0.25837915289336094
-0.007343821777345853  0.007983125636045082 -0.009740745719503773  -0.04748836483012508   -0.1090578685709906  -0.06359066234010269  -0.25953466239718326
 0.008414830566407839 0.0029934384573715935 -0.007061528553537512 -0.055662917371442015  -0.12108388743473923  -0.06733375854518654  -0.26067517711806876
-0.003360606445312306 -0.003938018369676192 -0.004832595762844771  -0.06022561199600622  -0.13040970463280932  -0.07075444836118205   -0.2617970144313607
-0.003932172363282308 -0.005298329797926058 -0.003128767333281123  -0.06098970739388597  -0.13688931487197256  -0.07382001558055197   -0.2628966926582883
 0.004863803955078237 0.0005125049211371613 -0.001687301911129052  -0.05809274798264436  -0.14044197742165013  -0.07650125995501841   -0.2639710216049557
-0.002068096679685968  0.003954290843427408 -0.000410953494274617 -0.051946138513158505   -0.1410576102542448  -0.07877234485314663   -0.2650171470480952
0.0038891035156226345 0.0001996360623249492 0.0008255497660888025  -0.04315838510101058  -0.13879432921436305   -0.0806110659350223   -0.2660325090928231
-0.007275500976559966 -0.002905656870483007 0.0017779897611110316  -0.03249069978774733  -0.13377365645330838  -0.08199968431570812  -0.26701479135648504
 0.006448704101559763 0.0003770673517000562 0.0022660274306528245 -0.020804951791419193   -0.1261725186316055  -0.08292543661914335  -0.26796189184093605
-0.006164589599606952  0.003778483739554568  0.002692330997924329  -0.00897163480719163  -0.11621836560184334  -0.08338025679193135   -0.2688719679360997
 0.009465851318358212 0.0001908381529424569 0.0031726195039186995 0.0022394113577298863  -0.10419188989328966  -0.08336029603491946   -0.2697435344039464
-0.008531280029297086 -0.005514414077165414 0.0034743416653718285   0.01220784381771845  -0.09042222379356622  -0.08286576657612169   -0.2705755010061514
0.0012812351074225935 -0.004036038848100968 0.0035181590586776407  0.020461222237733456  -0.07527426503551156  -0.08190117982169928   -0.2713671326977349
 0.004968844726562772  0.004717918023948592 0.0029733345861050592  0.026660374169381072 -0.059135594153833036  -0.08047589429817624   -0.2721179830532046
-0.010414821777345939  0.010799519172254069  0.002028908472796136   0.03064458555430822  -0.04239957160854431  -0.07860378451496007  -0.27282783529773585
 0.012971482177736757  0.002485783904311202 0.0014647960523193001  0.032464871875801576 -0.025452453063542123  -0.07630176355500616   -0.2734967173908567
 -0.00005667407226555 -0.014802576689725991 0.0013977250979126414   0.03234377861269395 -0.008668836126554192   -0.0735884340416048  -0.27412498277970476
 -0.01751130566406395 -0.014591609563710861 0.0015646703585042998  0.030641534447711914   0.00759313752342745  -0.07048309704818886  -0.27471333005293375
 0.013360517822264516    0.0091931585817375 0.0012786292222454335  0.027753935084793478  0.022999901621946473  -0.06700539626126066   -0.2752627460709806
-0.000837891357417219   0.02267557414848264 -0.000234518276431513   0.02405187800005701   0.03725017498081014  -0.06317580774133662  -0.27577440975341677
   0.0064434194335887   0.00532028539479029 -0.002565224962725702   0.01993802026226357  0.050083993234930436 -0.059015915328243025  -0.27624957803387773
-0.014895400634762669  -0.01733673507655106 -0.004615736443350879  0.015839879823904803   0.06129060098212814 -0.054548045015325994  -0.27668956363532216
 0.010301495117185712 -0.016982769225723632 -0.005275189542586326  0.012096030314383823   0.07070640252557407   -0.0497951693161923   -0.2770957998719356
-0.006349475097654015 0.0012133066390731676 -0.004137872832529985  0.008902519464512348   0.07821358739785274   -0.0447812024653514   -0.2774698631051946
0.0050226862792946275   0.01493197503316925 -0.002176046189998454  0.006322442758064263   0.08374377956745847  -0.03953142232497462   -0.2778134151223078
0.0006107260742196403  0.011112820084339607 -0.000567276805204296  0.004267714431960143   0.08727742595569632  -0.03407332384199313   -0.2781280858983129
-0.002408992919920547 -0.003325374453365339 -0.000003514732230073 0.0026101624572313674   0.08884389110032376 -0.028436814761693983  -0.27841535668964873
0.0011136135253869198 -0.010505684961203516 -0.000181092476753028 0.0012492930809760027   0.08851762183877847 -0.022653193768439592   -0.2786765572380607
-0.007505679443354463 -0.004751269200447224 0.0003528534062327067  0.000029049582591751   0.08640605447553161 -0.016754048096941226   -0.2789129607229208
  0.01679825488280857  0.003292544123767862 0.0021619618606562776 -0.001225398788378035   0.08264224359411831 -0.010770778344177034  -0.27912582732811125
 -0.02064482983398309   0.00398571945470627  0.004806170021845321 -0.002615566844784535   0.07738381758609143 -0.004734962516268363    -0.279316347866916
  0.02008518212890739 -0.001944465113041875 0.0071641586332996735 -0.004176164798940406   0.07080926561902069 0.0013205185967285105  -0.27948549506528236
-0.010315306884766175 -0.003007804152248288  0.007213896501075476 -0.005867691292867494   0.06311414394057403 0.0073606155759540735  -0.27963385368703275
-0.012988638427737577  0.006748834014356556   0.00453875927430886 -0.007529732089141983   0.05450785461805322  0.013348514826476957  -0.27976159221563307
  0.02910500195313003  0.008974312176941387 0.0000849205735790968 -0.008972477580144998   0.04520354039768283   0.01924625916833505  -0.27986855668883576
-0.014977054687501346 -0.006556886321725647 -0.004946903236271126  -0.01004025289735249   0.03541568264033031  0.025014776945486077   -0.2799543624422867
-0.010716035888675512 -0.013959483879150011 -0.008400977075050711 -0.010566089318705757   0.02536533631610626  0.030613700586804068   -0.2800184507406514
 0.015326633544925805 0.0004044006540786846 -0.009269016872511276 -0.010451444216161076  0.015275291630144953   0.03600121984196984  -0.28006008458176074
 -0.00524700585937516  0.011841572767021732 -0.007714148021957409 -0.009711698507027756  0.005365500951351082   0.04113509755436807   -0.2800783188836975
 0.001266923339841045  0.004865502073766544 -0.003902593836103394 -0.008385015264280506 -0.004156783564317923  0.045975032645714835  -0.28007206539394186
-0.000528380615231978 -0.007238650069297214 0.0009070940462308158 -0.006514592781293305 -0.013114965175810143   0.05048475128388578   -0.2800402566878047
 -0.00116756274414091 -0.009287631974879014  0.005339455772127617 -0.004214660928989605 -0.021365548282483597   0.05463293506359077  -0.27998198690455484
-0.001295463134767276 0.0004813757401090858  0.008361790717081279  -0.00166126357501901 -0.028792321120912893   0.05839346052936472  -0.27989657915519156
 0.001042579833986578  0.009924818724216791  0.008670188991456397 0.0009320971724521123   -0.0353044937888771   0.06174536812956028  -0.27978355906213126
 0.007502857666014115  0.006419423543992156   0.00580744646390981  0.003299011319029643  -0.04083212448772362   0.06467294685114806   -0.2796425613557188
-0.012068304687498747 -0.003624579154432309  0.000427478726027272  0.005217425758724947  -0.04532690434173502   0.06716619688801641  -0.27947331318846114
 0.007574166503903898 -0.005341814456703758   -0.0060222180898278  0.006570610749380804  -0.04877018058843633   0.06922016314911249  -0.27927572726680266
-0.004537290039059467 0.0000858410252331823 -0.011076540550070634   0.00722732510213396 -0.051164178670683916   0.07083287125466108   -0.2790500281215879
 0.006278739257810919  0.002198852692905908 -0.012193440700544834 0.0069781625841400805 -0.052514018092624626   0.07200354962078484   -0.2787968453618535
-0.006389506103516259 -0.000315394442078219 -0.008005758518648749  0.005637335237050831 -0.052822854919550806   0.07273138381134756  -0.27851720506399075
0.0013496982421887407 -0.004077598865631256 0.0008384927808364098 0.0031310093574709154  -0.05208954737556068   0.07301539592470573   -0.2782124500634045
 0.007488413085936976 -0.007285420482107131  0.011208563640873791 -0.000466989067885356  -0.05032514175721809   0.07285577376383377   -0.2778841991828369
-0.013085142578124502 -0.003829156822029956  0.018585176497550312  -0.00485259170570969  -0.04758386479926535   0.07225494535441246   -0.2775343659462307
 0.009480271972655201  0.009817614952511329  0.019023726626970033 -0.009544306675507834 -0.043965790726028284   0.07121767054021827   -0.2771651866902048
-0.005025817871092669  0.021086890265000043  0.011834582730263629 -0.014037654535213615  -0.03960281716659028   0.06975103893516435   -0.2767792223569076
0.0034234025878899007  0.012597525161091763 0.0004886066126628145 -0.017767355983589722  -0.03463611134841905   0.06786420923991458   -0.2763792762689343
 0.004414780761717929 -0.014340060781785206  -0.00972701686192444  -0.02007746584223092  -0.02918804206313757   0.06556805610635058    -0.275968251318386
 -0.00852841040038764  -0.03526183578301759 -0.014002310485798983 -0.020399945747225954  -0.02336098868594324    0.0628755681556188   -0.2755490770526397
 0.004818165283201353 -0.021388186347551547 -0.011820841889631404 -0.018355553909154432  -0.01724816452827262   0.05980129650057413    -0.275124715108555
 -0.01543461450195612  0.021720764696303674 -0.007661045454107101  -0.01376959065747083 -0.010925725383433097    0.0563594029948827   -0.2746981916935919
 0.022593692382816735  0.041797778313650634 -0.005980730430817024 -0.006851910134802263 -0.004439357793049433   0.05256216902357117  -0.27427264136071566
 0.008005661376956463  0.012909494963004484 -0.008950070246869165 0.0017617503730697945  0.002204880087748883   0.04841956356977408  -0.27385128012302057
 -0.03921013354493442 -0.017093433201311167 -0.013776277077004666   0.01121815302684639  0.009040378760685879  0.043940615458199835   -0.2734373034218357
 0.018539716064463394 -0.017531338775707693 -0.013229333312455868  0.020519215200915018  0.016098678269142734   0.03913688611359653   -0.2730338235592907
  0.03447438549804823 -0.018735173511225126 -0.003701088537051062  0.028635226279687617   0.02335399572433565  0.034025522633364114  -0.27264386808650126
-0.058772530761725277  -0.02004995362985875  0.012544458654669285   0.03480131834084766  0.030707886958407465   0.02863021272118383   -0.2722703922828574
 0.031871860351562455  0.007663008737573749   0.02812158366435861  0.038507543071005845   0.03799769295815802   0.02298160468132998   -0.2719162934632964
 0.004323969970712688   0.03982547078122526     0.032865196201392   0.03927959469100684   0.04503657809181891  0.017117558836282805  -0.27158436857173146
-0.015860536865247122   0.03651189395220288   0.02307063303461911   0.03675578891874943  0.051671342803990196  0.011083093177390037  -0.27127721502103413
 0.010405940185553807 0.0004187144362893941 0.0036899236164156302   0.03080454088377326  0.057792684579201906  0.004930385564298241   -0.2709971892648689
 0.010926164550782935  -0.04041805567969561 -0.016066470125140186  0.021497526001875825   0.06331727873106904 -0.001283006383670558   -0.2707464370945892
 -0.02938339038086396  -0.04630947593416453  -0.02625311407591535  0.009212382933508376    0.0681674175224204 -0.007497861218897411   -0.2705269588454729
  0.01170449902343822 -0.004011144769312568 -0.023251858253445643 -0.005467788215769789   0.07225038391526889 -0.013656423971602593  -0.27034066772794996
  0.01322438940430071  0.036897719843879226 -0.011427565455794044  -0.02213218394272562   0.07546708181655291 -0.019704078889028448  -0.27018936277654004
-0.008684611328128112    0.0316092877345254 0.0026310053105458617  -0.04038952924157922   0.07772543243895572  -0.02558993468559468    -0.270074650228074
 -0.00144603369140704  0.002269089505257786  0.013084917555630448  -0.05924041889347566   0.07891486143352149 -0.031266510107889556   -0.2699979058009701
 -0.00194613769531144 -0.013894657608761275   0.01780501368237061   -0.0767729707009068   0.07886762302161814 -0.036689596800810846  -0.26996027389750027
 0.005696253906251193 -0.014998211703551643  0.019788417818030382   -0.0902763034070769   0.07734447810501568  -0.04181895581974009   -0.2699626788981762
-0.000110958251953308 -0.009248592962198182  0.022767506693853797  -0.09670445708633325   0.07405640525734088 -0.046618082169110064   -0.2700058214807836
-0.011161866455080587  0.002679824340365541   0.02856008204734502  -0.09354892153083076   0.06874989654012159 -0.051052938558535405  -0.27009007638253485
 0.010480022949220184 0.0067858859736998536  0.035066655916113784   -0.0792871398071975   0.06130600421706556 -0.055091077943567775  -0.27021535130450314
  0.00651425097656491 -0.011284819294301833  0.032596511653511615  -0.05310271415311188   0.05176765320648447  -0.05870083560396378   -0.2703810467844225
 -0.01096297900391143  -0.02651788806651905  0.007175301152897175 -0.015078193546793916   0.04032165356839676  -0.06185179886174822  -0.27058609524163435
-0.003269918945306067  0.002838831757167638  -0.05026099227960854   0.03292911014298118  0.027245006461132846  -0.06451696679213505  -0.27082907034354486
 0.009457428710932402    0.0709748327782632  -0.13309356789780355   0.08665446282731051  0.012834529216206154  -0.06667435234357645  -0.27110833329060974
-0.022230547851559868   0.10879791600278527  -0.20957881436446055   0.13948354648492914  -0.00260654482376924      -0.0683074789496  -0.27142207649754563
  0.04151926342772966   0.03829920336537986  -0.22926222071440705    0.1835093591678998 -0.018756028901094186  -0.06940528590389819  -0.27176829044085454
 -0.01894653979491561  -0.13049791913693956  -0.15023162179842828    0.2115564978062706 -0.035274761610526326  -0.06996089385109078  -0.27214476161367396
0.0067070820312439446  -0.25665862477816304   0.02999660998712344   0.21860556462797454 -0.051813190235247275  -0.06997032906921584  -0.27254911256305325
-0.026059110351550514  -0.17438147089644415   0.25773977864997943   0.20182865837536862  -0.06803439599903134  -0.06943257677999065   -0.2729788829975494
-0.013413979248055794   0.12157138480650186   0.43583138381883857   0.16069213982476546  -0.08362771255077758  -0.06834861361928182  -0.27343160303106245
 0.008449748291003882   0.38432156559909714   0.47215507071346496   0.09760279295270798   -0.0982693001748952  -0.06671912699772518  -0.27390475038262907
   0.0709952399902597   0.30830554541519917    0.3320560699222995  0.018418665544408217  -0.11156382118907157  -0.06454306116601329  -0.27439563851607107
 0.010463323730452681  -0.06684477644058756    0.0600390199555574  -0.06759074835969062  -0.12303044918749148   -0.0618169754757663   -0.2749013942216631
 -0.15278121459961352  -0.33452736162895064   -0.2356814869801147  -0.14913884754835316  -0.13214238638493428  -0.05853664068622457   -0.2754190621711225
  0.10864418115234997   -0.2540633720966975  -0.43821291305204707  -0.21569883412754257  -0.13843051681786947  -0.05470170946279466  -0.27594583559471547
 -0.01307453247068741 -0.011623086620918242   -0.4808244225203944   -0.2595814222637006  -0.14159740858051206 -0.050319820128859494  -0.27647930741414395
-0.012255895507840653   0.13146340939722043    -0.368080850859454  -0.27629194170959237  -0.14154486163757468 -0.045408305936160194   -0.2770175537457703
 0.023681550781268396   0.11700558288296468  -0.16506733081605907   -0.2644908543350431  -0.13834763514508297 -0.039995225695821826  -0.27755908767134757
-0.004755355224613862  0.028074625215058515   0.04201381735978542  -0.22604462549423854  -0.13220225098159955  -0.03411941944901977   -0.2781027914245727
 -0.03671611572265854 -0.022531664211263933     0.189657307675561  -0.16606636747444117  -0.12336543706348606 -0.027829870256769165   -0.2786478529461742
 0.031392159423827615 0.0008024749891311026   0.25202576973114216  -0.09283438463020309  -0.11214275502560746  -0.02118551348364605   -0.2791937510038567
-0.002562453124993414   0.02276728067408746   0.23784422279585668  -0.01648050588013907  -0.09889300933753764 -0.014253289924745763  -0.27974024520170654
 0.011403252929680682  -0.00864727094828181   0.17539751933006562  0.053559768985305824   -0.0840037019439521  -0.00710430852957966  -0.28028725982243696
-0.024474325439449586 -0.040580644241856936   0.09370015596091581   0.11035832014823059  -0.06785803369061764  0.000189237077962911  -0.28083470981441927
0.0024233317871073974 -0.018044226151638518  0.015777465127430668    0.1498842862231823  -0.05080557837544747  0.007556111849219884  -0.28138239045916075
  0.00895443041992077  0.023319097049419216 -0.042598100898143386   0.17079814525548326  -0.03315254858385979  0.014926929143881808  -0.28192995238606644
 0.006980169189459548  0.016880128945416382   -0.0736911765968257   0.17395689451779484 -0.015200620830471454  0.022233593941433573  -0.28247698916619934
 0.004565328613275398 -0.024315647767603265  -0.07766934511729354    0.1621144612144978 0.0026924295439894282  0.029408965785858925   -0.2830231922721466
 -0.04249703686523589 -0.029284621270908136  -0.06207989597896397   0.13980500978962426   0.02010135264477831   0.03638759786449415  -0.28356840618320944
  0.04253958935547317 0.0077651590089665955  -0.03974127860480384   0.11237025359717308   0.03657275417463088  0.043106083573885394  -0.28411256110471994
-0.000863598632810826  0.030333828687972568 -0.023511265299809774   0.08435391121639528   0.05170333046069146   0.04950335152767131   -0.2846555579594699
 -0.02959372241211454    0.0268985830653538  -0.01949822064318871   0.05860008547320126   0.06522411041072866   0.05552131161744877  -0.28519714751077224
 0.024985968017576236  0.017994321630727377 -0.024660952237518796   0.03616337366352467   0.07701351300398247   0.06110466208241502   -0.2857368861600616
-0.008577011962881655 -0.009037633836106613 -0.029084809607930112  0.016753012667385072   0.08706383298380213   0.06620177253801236  -0.28627416278166246
 0.018306966308586387 -0.049893942151389904 -0.021896725930174627 -0.000505949877980425   0.09543984033734887    0.0707669941310257  -0.28680818281683307
 -0.03574703369140285 -0.048890181811154336  0.002243480690504611  -0.01676826457920575   0.10223773949655197   0.07476217024418327  -0.28733791034887546
 0.013897363281249216  0.012510383959370763  0.039223460350527026 -0.033367702561478446   0.10757698129396702   0.07815754411767244   -0.2878620304407072
 0.008883992431636071  0.061657482098352936   0.07645567107110729  -0.05119624837629923   0.11160129387418631   0.08093175859399165  -0.28837894969239947
0.0014514184570399912  0.025903198073739156   0.09908048580087608   -0.0700283105087073   0.11445512589038939   0.08306997796190714  -0.28888689567468917
  0.02285505493163848  -0.04475841639758833   0.09410686757672154  -0.08840387684390856   0.11624935067326114   0.08456209706718817  -0.28938407700679414
 -0.07819866040039955   -0.0314704949773085   0.05659390129695751  -0.10390840332180677   0.11704093767324046   0.08540247865151906   -0.2898687589216985
  0.05106242358399095  0.051770914505070015 -0.005817988225549074  -0.11387065866315535   0.11683280464393771   0.08558875979753561  -0.29033925564129937
 0.042923527343756984   0.06512531288173248  -0.07639926860045806  -0.11616744830306996   0.11560090907847603   0.08511985143337819  -0.29079388383326854
 -0.06984740673829187 -0.014816781580189495  -0.13097674553405497  -0.10941893910977801   0.11334095889048038   0.08399479260472004  -0.29123087853235796
 0.026883198730467038  -0.07150985538775606  -0.14702349936843045  -0.09303892882307789   0.11008090706534265    0.0822115325274951  -0.29164835474352335
-0.001960845947254017 -0.057045527934881324  -0.11614368582869973  -0.06756771937090504    0.1058584736903922   0.07976763060200638   -0.2920443252101355
 0.004906107910148659  -0.01794256248929189  -0.04653956052117911 -0.034861109062326284    0.1006897386763389   0.07666405428322398    -0.292416668796377
-0.006295160156248157  0.023156557314468473   0.03653950106249231  0.002053058095556067   0.09453656200978883   0.07290855816461798   -0.2927630764900698
 -0.00659861572265923   0.06129186695125838   0.10133102379386594   0.03941026135885208   0.08731095026894672   0.06851754627089862     -0.29308103292052
  0.01615450146484867   0.06296370919396359   0.12636116378870602   0.07346076601138202   0.07891025718341413   0.06351740827803755  -0.29336780591969813
 0.002452483886714658  0.013488811748616696   0.10750490206722532   0.10115962030119169    0.0692523847585809  0.057944302011692116   -0.2936205047733961
-0.021309326416013966   -0.0445691447220679  0.059369144049243434   0.12033716964105376  0.058301252416213985   0.05184310503479004  -0.29383620000260713
  0.02166464599609341  -0.05951346039279384   0.00607489635728054   0.12967148963563596  0.046074318666546855  0.045267095444847985   -0.2940119857070055
 -0.02290396606445075 -0.024336685863081808  -0.03289405770608556   0.12877093294228983   0.03264122599348537   0.03827654529282527  -0.29414499459436444
 0.013746576171869267   0.02281756077654437  -0.04933830429224788   0.11826330163700183   0.01812506863109047   0.03093617764290998  -0.29423238056654283
 0.005817636230475558   0.03513620915355168  -0.04705229407197846   0.09975288996070839  0.002712691488467145   0.02331313873446653   -0.2942712714950399
-0.002085197998050215  0.009659368057500782  -0.03536062514034735   0.07550246094038043  -0.01334121241322392  0.015474979599161111   -0.2942587730447702
-0.014891783447266918  -0.00926431427049892 -0.021599744809596807   0.04795657488902988 -0.029724325698420484  0.007488607410985859   -0.2941920140735682
 0.007934470947265376 -0.003738946421098233 -0.008639064162942845  0.019308643367824417  -0.04608190751755896 -0.000579033333883282   -0.2940681628789184
  0.01308522509766204 -0.004715125991115922  0.004125066619876069  -0.00867946133789453  -0.06204399799059359 -0.008660266958627578   -0.2938844394385777
-0.008866414306645814 -0.016041817879501725   0.01641687389356576  -0.03453173309388401  -0.07724307275355057  -0.01668669118453302  -0.29363814467469695
 -0.01937210864257991 -0.005030064533232618  0.025080752481738987  -0.05695016135220369  -0.09131225330991762  -0.02458945629734617   -0.2933267083456748
 0.027914661376957906  0.019508226450508453   0.02607113153286376  -0.07495020002261188  -0.10388640646921497  -0.03230057413759007  -0.29294783873010455
-0.003585249023436541  0.020819052158246382   0.01716259241417657  -0.08794544617000284  -0.11460580774262491 -0.039754428899181266   -0.2924997127363635
 -0.01882649877930437  0.005323603801436415 0.0009476671147732063   -0.0956748510983443  -0.12312792045993533  -0.04688794170449384  -0.29198105887332937
 0.013664563720708348 -0.007588083130782072 -0.015589137873983312  -0.09816480727457771  -0.12915377564733704  -0.05364160078568678   -0.2913911590075402
 0.010630735107424304 -0.023042282786980936 -0.025636432391656427  -0.09557366720075956   -0.1324601668188477  -0.05996141909512709    -0.290729766813264
-0.021494199951176476   -0.0271085317899092  -0.02631162103506495  -0.08804907553831691   -0.1329213372112425  -0.06580027195898648   -0.2899969625145126
0.0025565627441401914 0.0018702790448723423  -0.01947574313700851  -0.07598541331308517   -0.1305171421331487  -0.07111945507103172  -0.28919308813392014
 0.012270193359381277  0.035833602134839444  -0.01041395595419398  -0.06019457827829082  -0.12533235959845945  -0.07588915455168882   -0.2883187471107447
-0.002375252197274045   0.03206574338556605  -0.00333454453182027  -0.04176596898644393  -0.11753737554246281  -0.08008683406201098   -0.2873747680647222
-0.008877749999993911 -0.005932237547038819 0.0022031892077943567 -0.022009271486067534  -0.10737099294202698  -0.08369578832743466  -0.28636214890439443
 0.021284261962889753  -0.03741830420000679  0.008445142023087972 -0.002326218396441097  -0.09513417026591157  -0.08670471407063829  -0.28528199705216345
-0.038545780029300716  -0.02853102614434528  0.016669573749088354  0.016053745451588133   -0.0811775182777491  -0.08910650418249474  -0.28413549056598286
 0.027835436279299897   0.00547702315001834  0.025207017202755155  0.032059110318009676  -0.06589379127859558  -0.09089683877111317   -0.2829239568995589
  0.01358233740234829  0.023119933916640564   0.02778561878308251   0.04471393114363965 -0.049706585929427005  -0.09207320726269713   -0.2816490280527584
 -0.04063347314454052  0.024254797500573546   0.01983148604964101  0.053406905643622736  -0.03304995365717778  -0.09263305906996273  -0.28031270332134234
 0.024272667236331397  0.023009683787715923 0.0032778308535896233    0.0579693971150715 -0.016356974651218097   -0.0925733242549768   -0.2789172800857104
 0.012704523925786663 -0.001056236482570195  -0.01507489789387178   0.05860992553769336 -0.000052860232666898  -0.09189229488123846   -0.2774651599723622
-0.020823809814460147  -0.04291010997297529 -0.025205193215729185  0.055990629736890965  0.015453678041642322  -0.09059159006212185   -0.2759586047125122
0.0032556721191440495 -0.048904789141132145 -0.021195159304222277   0.05100838030787616  0.029777586199588327  -0.08867807552145407   -0.2743996146590574
0.0003749990234384992 -0.001042298211094167 -0.006768509133675445  0.044505162817391426  0.042567843398383105  -0.08616526593832075  -0.27278993195537543
-0.004764192138676831   0.04958902009619909  0.009067755167284782   0.03727695659634338    0.0535344470771512  -0.08307291417181366  -0.27113107262574637
 0.018954496093756993   0.04619053971173056   0.01663550090417719  0.030005050814845103   0.06247364974047642  -0.07942587371073033   -0.2694243635535177
-0.002519879394536188 -0.002687386467275186  0.011368155194640458  0.023078439046429384   0.06927626048519268  -0.07525363706219677  -0.26767095180156003
-0.032085143310546405  -0.03388615073604854 -0.002425713289823748   0.01670222967056591   0.07392936427497514  -0.07058977933945122  -0.26587180726900655
 0.035536835693358707 -0.021482614212769126 -0.016368670522277372   0.01091141715508911   0.07649305727846274  -0.06547119763292157  -0.26402782775829675
-0.015786894287103056  -0.00106407552898302 -0.022904737392101745  0.005443878982841047   0.07707098882277544  -0.05993714865822142  -0.26214001193855135
 0.006110795898429361  0.006756209190202689 -0.018821836546108556   -0.0000210346765481   0.07580380548523474  -0.05402737047320996  -0.26020956887735036
-0.010940296874997674  0.011570607608275102 -0.006145056272211324 -0.005739649857577185   0.07286451068858943  -0.04778118692983848  -0.25823792836158355
  0.01237204272461384  0.008377604741100842  0.010699865669509999 -0.011940151342484977   0.06845579547984854  -0.04123854255082143   -0.2562266147211284
 0.003769967041009279 -0.006738720180939115   0.02620862625397459 -0.018562392378792238   0.06280529346097141  -0.03444175422212368  -0.25417701997349573
-0.026994257080075034  -0.01622768363465375   0.03571379067312142 -0.025155721231031707   0.05614639188277649 -0.027437263940684166   -0.2520902566688514
  0.03950268896484605 -0.008100800189623052   0.03505330600703726 -0.031141271386674375   0.04870241191768386  -0.02027618723075421  -0.24996714808191486
 -0.03564766235352057  0.014317969901983538   0.02129632372537225  -0.03587892066520554   0.04068860911555844  -0.01301304221335748  -0.24780827751023024
 0.007548447265626892   0.03186783997847518 -0.002879051560632085 -0.038675287817880086   0.03232052619760305 -0.005704406167723857  -0.24561406789485532
 0.035610524902347854  0.018644506932455274 -0.030024673784313047  -0.03902968451033137  0.023819756995349977 0.0015914054780002298  -0.24338483601290328
 -0.05424131567383449 -0.015637549165074156  -0.04908115042144767  -0.03656171889622414  0.015418149460167157  0.008815379512200124  -0.24112079481522444
  0.03294033569335871  -0.03918113678863179 -0.049827941697339354 -0.030947024316197502   0.00733743787921246  0.015909442320058167  -0.23882211308992465
 0.007647761230479708 -0.042731484693845335 -0.031253324032014876 -0.022341749908765095 -0.000241423746258747  0.022818258179275772  -0.23648903702832938
 -0.03036948510743127 -0.012409993438535981  -0.00157245398208888   -0.0115114340375869 -0.007188447421839416  0.029491789826497687   -0.2341219758384782
0.0031848417968713873   0.05217903752269824  0.025387595464535787 0.0004668344527147172  -0.01342826794189607  0.035886491017159225   -0.2317215323115333
  0.02319870190430708    0.0754978426232515   0.03696089462843201  0.012364728179721845 -0.018925356220409428   0.04196462339516865  -0.22928843450992809
  0.01444623388671558  0.007337699802751429  0.029957855077222484   0.02300402411738517 -0.023660985494798854    0.0476935649068925  -0.22682339229567552
 -0.04738361743164582  -0.06409269722850992  0.011205601291017485   0.03150502625815382 -0.027634580287418907   0.05304527867320936   -0.2243270112743448
 0.012903197265628143  -0.04611864403779513 -0.007067311355367789   0.03709369226144526  -0.03087056315029359   0.05799541766185868  -0.22179978864501573
 0.021557198242191933   0.01580393390983748 -0.014255910589811427   0.03898412937633302 -0.033414895334447275   0.06252269919181833  -0.21924215479546186
-0.017520296142584563   0.03362328048218407 -0.007260514942369742   0.03684190337800714  -0.03531989115074664   0.06660807508299746  -0.21665455670704903
 0.012582802978517663 0.0004192589046391325   0.00836951990086395  0.031005934704631435 -0.036617842167002465   0.07023286224188888   -0.2140375365631172
-0.002795625488278816 -0.029280942527599607  0.022178672129288587    0.0222583824531786 -0.037301547859357756   0.07337784479220417  -0.21139178349904061
-0.020656472900391673 -0.008902843164628686  0.024978569215137657  0.011656075779009206  -0.03733593894164998   0.07602384222662048   -0.2087182322137179
 0.015628049804680674   0.04229088106030823  0.013225883188295259  0.000274858777415847   -0.0366905436444737   0.07815304831545476   -0.2060181775013051
 0.004287106445324953   0.04601171663291471 -0.008428600174600747 -0.011008147926368537 -0.035365031666794146   0.07975128212484525  -0.20329332543492526
 0.023431440185538385 -0.017423934268828635  -0.02945204381571025 -0.021279257629401263  -0.03340362177443544   0.08080921951202599  -0.20054580220882431
-0.061016773681638894  -0.06052882930774526  -0.03920821914221909 -0.029410027205211665  -0.03087976726550666   0.08132169979483565  -0.19777808319215406
 0.039147719482418124 -0.029306426712110006  -0.03166669337816546  -0.03446897989728604  -0.02786315003341172   0.08128638950605353  -0.19499285896714819
 0.001391762695324343  0.017220683806236595 -0.009625570474337958  -0.03604467752759008 -0.024407146585085755   0.08070289362968777  -0.19219294554385888
-0.004871828613294236  0.024997674614857048  0.016329602319919895 -0.034144897830132706 -0.020547093169583735   0.07957277693060538  -0.18938123425200612
-0.010159187255853777  0.014000302779449513   0.03384423073309713 -0.029128279826597887 -0.016305405628767176   0.07790000498146832  -0.18656066578240865
  0.01639766943359501  0.009162119459869689  0.034199317051504315  -0.02152026801979296 -0.011694912675177745   0.07569031028209296   -0.1837342355317189
-0.014016969970706415 0.0069633131798421885  0.017119558469051506 -0.011818402491646677 -0.006700857149266192   0.07294935080475808   -0.1809049928416744
 0.004647694335937967 -0.002044044590002706  -0.00863032059792426 -0.000723821514180298 -0.001264650158290779   0.06968217885391406  -0.17807603632908878
 0.014548148193364528 -0.017799659679530934   -0.0307674921043592  0.010628779991834942  0.004700873780944221   0.06589489840667717  -0.17525054858855152
 -0.02506917602539795 -0.020315935771164424 -0.038986021043945274   0.02098572249114154  0.011264215784816557   0.06159803861735261  -0.17243184405243214
0.0028831267089864535 -0.001820013423323835  -0.02916266615444213   0.02935594339372739  0.018420605461686772  0.056810381316969506   -0.1696233773032243
  0.02982934204102039  0.007077080856857825 -0.006103614278166679  0.035085993958716116    0.0260614859149142   0.05156041118473673   -0.1668286996776956
 -0.02962162133789446  -0.00223516045159129  0.019890854830518147   0.03791328204324857  0.033991494179151836   0.04588546968156362     -0.16405131894462
0.0006852429199184686 0.0028798768051288754  0.038158435280397744   0.03775906637373365  0.041981107854615514   0.03983078064032371  -0.16129450987374103
 0.013546666992194542  0.021184834044340115  0.041072818097496494   0.03440325573286002  0.049813852116623016  0.033448775254687264  -0.15856120223781925
-0.001820432373051071   0.01757853962475212   0.02834380916847544  0.027644779193725145   0.05730919387481081   0.02679806315495793  -0.15585395264331015
-0.006934141357421316  -0.00632760517060867  0.006299781452245277   0.01765383699688634   0.06431413531595713   0.01994198201218258  -0.15317498924889178
0.0054032692871089465 -0.020427130998258335  -0.01619595347345744  0.004984205313328724   0.07067991120636978  0.012946003840815904  -0.15052630517557772
-0.006719320800779593 -0.015718857554082873 -0.030199917648393353  -0.00962895164931773    0.0762574431335632 0.0058743116705489195  -0.14790970715122223
 0.008672547119139824 -0.002878309866427468 -0.031087883383804495 -0.025481585686844683   0.08090504219343365  -0.00121198613566028  -0.14532682423952753
-0.007389489257813736   0.00783237928301659 -0.019910758230809754  -0.04203120492979145   0.08448827550371509 -0.008255043050973044  -0.14277915931702884
0.0024658786621116514  0.009768450629713132 -0.001541234783043772 -0.058492863907040935   0.08685890177449941  -0.01519996263747042  -0.14026816973843484
 0.008633552001950907 0.0036928601958707875   0.01643959302437625  -0.07319895977911976   0.08781330174924204   -0.0219940238640027  -0.13779532332795613
 -0.01849711450195135 -0.000412809103014531   0.02806989078908775    -0.083598784495893   0.08706924105185525 -0.028586326311005546  -0.13536209742866298
  0.01882097412109279   0.00352414763016334  0.031745310442624367  -0.08690139299179928   0.08430000486091768   -0.0349281867079213  -0.13296985735461114
-0.014587934082031533 0.0066655022448463405  0.029875645609375272  -0.08089974780195136     0.079221213145456  -0.04097303054892184   -0.1306196485662763
 0.007028224121094361 -0.005645342941694442  0.026695226312714197  -0.06445538616115043   0.07168291071612462  -0.04667557311723344  -0.12831205892937542
 0.010576775878906782  -0.02940887857469238  0.021209025219296948 -0.037371435727091215  0.061715215741819304  -0.05199149484521443  -0.12604720769261107
 -0.02492891235351708 -0.034091373964479456 0.0041916320544171486  -0.00020673284820965   0.04951097275158128  -0.05687774683552423  -0.12382483880393151
  0.01997158789062476 0.0023344441592356895 -0.036359834562061204   0.04521651064378631   0.03536684572729457 -0.061294075924345104   -0.1216444779342234
-0.006536856201166276   0.06348945614103334   -0.1032520771603985   0.09497496733735838  0.019626567087944993  -0.06520551329097174  -0.11950554391343571
-0.007906786132819227    0.1075559797898369  -0.17561376522197553   0.14289382593358532 0.0026523813351666797  -0.06858325943876249  -0.11740737626461639
0.0018744196777335659   0.07597319819577039   -0.2087878474640344    0.1815550115351079 -0.015179856846460265  -0.07140367320994717  -0.11534925188775678
 0.026403023925781418  -0.07516812230317174   -0.1561297786031875    0.2042186287975209 -0.033482839980526015  -0.07364650083152498  -0.11333041100455817
 0.005775092041024694   -0.2625966268513967 -0.001979263018125467   0.20636601565849133 -0.051876809578211704  -0.07529332267422215  -0.11135008557726186
 -0.03922094287109814   -0.2557407493540485   0.21346161674275077   0.18592891818179627  -0.07001172129928626  -0.07632759345747725  -0.10940752794227131
 -0.04933467358398769   0.05737217391606696    0.3999929133841764   0.14304420728091197  -0.08756424726839415  -0.07673541894344074  -0.10750195478480157
  0.06304392871093036    0.4041997432065711     0.460257704640236   0.08028906861138212  -0.10419819313641354  -0.07650484258613449  -0.10563240944592651
 0.053233596435568804    0.3743773910422921   0.34516279712404413 0.0032431335128828677  -0.11950407825128612  -0.07562418019449521  -0.10379765966835702
-0.003582109375019247  -0.02059277746527964   0.08671979130588807   -0.0793603912038866   -0.1329705209620719  -0.07408180411124467  -0.10199618818792791
 -0.12371588476562402    -0.331895452887886    -0.211894697398789   -0.1567799164926106   -0.1440287339055618  -0.07186800092157573  -0.10022631362763416
  0.07473518212890856   -0.2831416924223343   -0.4284522479451685   -0.2188382223988144  -0.15215547555225947   -0.0689791232552169   -0.0984864205548412
 0.006828868164078835  -0.05114123264624746   -0.4838326526581511   -0.2581792699740113  -0.15697829162867108  -0.06542226715414969  -0.09677515410247682
-0.002736033935568684   0.10191871805819777  -0.37483346662213773  -0.27085042745675625   -0.1583263898754616 -0.061216902889844715   -0.0950914972779876
-0.010560326660147707   0.12233668682805701  -0.16645795327472454    -0.256044710199415    -0.156217717249512  -0.05639418234047777  -0.09343479710328575
 0.014855440917968473    0.0730709579034679   0.04910780631674932   -0.2158305293300345  -0.15081196314528533  -0.05099594865731929  -0.09180476400511932
-0.014958249999999139  0.015621827922657075   0.19928455872237646  -0.15508009393787583   -0.1423660674984993 -0.045073526214157965  -0.09020144899412386
0.0036531242675742937 -0.011951854560722352   0.25520072070903316  -0.08151823653394392  -0.13120780961130146  -0.03868672024280419  -0.08862522402745952
0.0023693027343804807 -0.014219148144203676   0.23008876522664032 -0.004861658634442289  -0.11771588199435251  -0.03190269430459021  -0.08707668488302671
 0.005232224121089596  -0.01721150469034472   0.15917750366126437    0.0654422284807247  -0.10229069413948033  -0.02479327926917554  -0.08555647816369572
-0.011638487060546014 -0.024795366115620675   0.07768559465898979   0.12223930246545367  -0.08531222146991169 -0.017431649121568905  -0.08406517335646485
  0.01166188427734653  -0.02216338335740056   0.00882972674070024   0.16127495801383845  -0.06710948563974901 -0.009890493716612882  -0.08260320631786863
 -0.01065574365234739 -0.000374962668833543 -0.038619391939510014   0.18103031197155497  -0.04796790452250845 -0.002241406840171221  -0.08117090234801126
-0.004127230224610098  0.023963274590260476  -0.06456724920759556   0.18213798979326468  -0.02817402916732333 0.0054448074911269875  -0.07976856327499428
 0.028380584472663516   0.02053572966672009  -0.07256189085436056   0.16684033561268796 -0.008077379298422427  0.013097161257241674  -0.07839654085641047
-0.024763581298836438 -0.002713346852538169  -0.06701023048341592   0.13901955242948016  0.011878293406942554  0.020644581904269828  -0.07705526910579709
 -0.01279290649413946 -0.011862958327959118  -0.05102095451243226   0.10385158292098823  0.031189373558932924   0.02801714526870404  -0.07574528241396762
 0.044543014892582854 -0.011078681643320371   -0.0285577869099311   0.06649757819662354  0.049371049112761176   0.03514704435777568  -0.07446721800633753
 -0.03738967260742188 -0.012069090990724644 -0.004707125091195724  0.031020835438044302   0.06603351912838754  0.041969312396082495  -0.07322177827299559
 0.003659295898428511  0.005035956425616923  0.015369023876628609 0.0000589130002762344   0.08091909277994715   0.04842238281672292  -0.07200966479744136
 0.008752991943369275  0.028577844575354797  0.026696399806949836  -0.02517539500828312   0.09389514866101162   0.05444846859910106  -0.07083145857732388
 0.011008270751950296  0.015725269945441076   0.02712012743418218  -0.04436229963135685   0.10492806025107271  0.059995042519461396  -0.06968747127062558
-0.016855037841799467  -0.01926099251467775   0.01804652167127507 -0.057523789651267775   0.11406308158685499   0.06501687823716408  -0.06857766148746736
 -0.00236354687499837  -0.02481643684578378  0.003868483060437237  -0.06516194330699708    0.1214074756835412   0.06947659737746148  -0.06750162909360871
  0.01119314550781532   0.00280870766508699 -0.009902661926295159  -0.06827035113856317   0.12710403450132826   0.07334381345890874  -0.06645868806825475
-0.009409274169928771  0.023483932078306527 -0.018833082164417266  -0.06786254563132098    0.1312935530909764   0.07659339934403038  -0.06544798254765015
 0.009258832763679073  0.008032249174242334 -0.019878478330078254  -0.06476414254274743   0.13407141914656664   0.07920368811821299  -0.06446856832987882
 0.012516814697264534 -0.022953325821160577 -0.013293259968513623  -0.05955217633586691    0.1354631446737351    0.0811562538268443  -0.06351945107232433
 -0.04700555859375676 -0.019514265807156372 -0.001415321458139963  -0.05242985895502958   0.13543710758340094   0.08243651307587897  -0.06259961584522772
 0.037718688476568965   0.01270083710193158  0.012397441371243297  -0.04353939664454765   0.13394235671042928   0.08303313470233407  -0.06170806171797034
 0.014178932373049099   0.01818159124499435  0.022393063057072546   -0.0332568177326409   0.13095512108311336   0.08293692370118429   -0.0608438137267748
-0.043988517822273164 -0.002390848477063384   0.02443748741233128  -0.02197433643688451   0.12650842168351564   0.08214067689894004  -0.06000588325856406
 0.030190302978518584 -0.004969754309888753  0.017250869934208747 -0.010055370955684857   0.12068190088154788   0.08064020261671268  -0.05919315114539046
-0.007198903076166655  0.008980018295946609 0.0022113936902958824 0.0020411925236633005     0.113569284850871    0.0784372171153266 -0.058404203399903036
-0.005877866699227984   0.01105795684063448 -0.014247750935326512   0.01391018819292974   0.10525197344066338     0.075542728451535  -0.05763722929118397
 0.010951701904303739 -0.005720540758433413 -0.024942506463790398  0.025200165936559753   0.09578719806047684   0.07197801250341185  -0.05689003118248353
0.0008638115234364556 -0.026111293590311425   -0.0255740511655384   0.03544994369499938   0.08521269696132455   0.06777402747923862  -0.05616013490310659
-0.019085368896486148  -0.02092681100422456  -0.01548302739683043   0.04422980449563947   0.07355779304973846   0.06297055634436217  -0.05544494659214811
  0.01165882934570183  0.012787541948260006 0.0002517917720944337   0.05121828035167684   0.06084649985986129   0.05761491724040925 -0.054741860517939674
 0.005827329833989528  0.030544717686896154  0.014046121408417897   0.05603718524197035  0.047104861057773686   0.05176107226382117 -0.054048287492786305
0.0035177321777305364  0.009815496874456197   0.02020121515518269   0.05833981691793545   0.03238247979146133  0.045468905982470983  -0.05336164689915517
 -0.01947973730468774 -0.011617013709603356  0.016830347289903097  0.057910912023617006   0.01677747068021272   0.03880238216782846  -0.05267936114717897
 0.010350081787110235 -0.005728869425061625  0.007087142637637585    0.0545485458243991 0.0004595547161908243  0.031827410000278174  -0.05199886554045752
  0.00563069750976642 0.0038900512106962506 -0.002989481598830096   0.04813276836219836 -0.016321005596491685  0.024610590364571847  -0.05131762025180653
-0.005443165283203628 -0.005187355898620893 -0.008071521589727383  0.038774295015006344  -0.03324865643454283   0.01721847051267566     -0.05063306632147
0.0037891186523434147 -0.015652746371506203 -0.006228012283879035  0.026785400854527255  -0.04996880078247754  0.009717572393395744 -0.049942532462270234
-0.011744819335937644 -0.004694668793318813 0.0005008883830150213   0.01271222521380726  -0.06611453469772675  0.002175092379277362 -0.049243183148968674
 0.009326110351562673  0.015992283388556558  0.007715616279282351 -0.002603895585589307  -0.08132987580814169 -0.005341178812814733 -0.048532059812693276
 0.005888717773438146   0.01736792644930137  0.011104329995712666  -0.01819389347686864  -0.09527911310263261 -0.012763733269593944  -0.04780623436917776
-0.009406146240234427 -0.001266844155905716  0.008992349269698625 -0.033081698672745505  -0.10764828976896429 -0.020026338089057863  -0.04706303234259821
0.0030682331542951683  -0.01220772626120053 0.0025156044443481133 -0.046266617529608034  -0.11815293057159655 -0.027065361461920127 -0.046300201774117436
-0.006244341796873644  -0.00486076238191668 -0.005505361698808934  -0.05682499637562894  -0.12654587803730535  -0.03382068909337108  -0.04551597061588317
  0.01199141015625092  0.002416101844307054  -0.01213251545916263   -0.0640244207761824  -0.13262352527410803  -0.04023601604940559  -0.04470903444147555
-0.004306623535157893 -0.000336982962308299 -0.015827217716423776  -0.06738528166167372  -0.13623266304521056  -0.04625972712629728  -0.04387850395269288
-0.009693306884764798 -0.001175451544040257 -0.016075916699142604  -0.06677813833299587  -0.13727137343310822  -0.05184596715340725  -0.04302384595229156
  0.01430389062499923  0.005094616508310027 -0.013120656402395202 -0.062440228710104885  -0.13569264812429055  -0.05695512876669308  -0.04214484512957304
-0.012104966064452126 0.0059433490962978045 -0.007281572714698046  -0.05483583890779988  -0.13151643178239206 -0.061554004813420646  -0.04124153481328176
  0.01186357080078084 -0.005116077359801388 0.0009009650757847883  -0.04456342650927219  -0.12483766967767737  -0.06561526259102786  -0.04031409973853775
-0.006051143310547285 -0.014477246078080446  0.009509892058908117  -0.03235663541925584  -0.11582758567821032  -0.06911647140557402  -0.03936281016699151
 -0.00804253564453021 -0.006525308183253607  0.015997192421299256  -0.01904511991654654   -0.1047293368463248  -0.07203990225279164  -0.03838798957759932
 0.015144843749998837  0.013533970861858095  0.017480428120292647 -0.005506914541259263  -0.09184447199843633  -0.07437280669095284  -0.03739004950124946
-0.015758748046874476   0.02281969035316144  0.012554296620542226  0.007422906109449053  -0.07751648663513326  -0.07610707369802525 -0.036369584702874845
  0.01790105786132753  0.006591513716459617 0.0030604141362801846  0.019086423778150608  -0.06211822722631244  -0.07723873595627893  -0.03532744630939965
-0.007293009033200795 -0.019307888531987706  -0.00731892418487093  0.029035537061284266  -0.04603826383728857   -0.0777676966692111  -0.03426475480451218
-0.011775335449222428 -0.022095602078144243 -0.013845989247454308    0.0369475105441008 -0.029668317778758554   -0.0776974217799561 -0.033182844210369516
 0.010436977539065006 0.0015050576463933288  -0.01349596602901028  0.042567089936637346  -0.01339460688760253  -0.07703540943328009 -0.032083142772008195
  0.00262741406249923  0.016298498764041203 -0.006906729134675721  0.045736406611586955 0.0024145445302923675  -0.07579409072300791 -0.030967044110552087
-0.001378237792967255 0.0033942848914297404  0.002993626609664998  0.046441939305434325  0.017420163920882102  -0.07399095864818293 -0.029835818286085454
-0.000264546630861767  -0.01029652918231525  0.011406160900428232    0.0448574643945979   0.03131850545245534  -0.07164853282889655 -0.028690522105250874
-0.014451063476562399 -0.000617833725634317  0.014555541228006064  0.041311086086084116   0.04384659203707928  -0.06879441064047986  -0.02753191150834767
 0.022556709228518056   0.01325292943292789  0.011612981920550816   0.03615653116773782   0.05478704263035326  -0.06546078111295876  -0.02636041326699169
-0.006565212402344817  0.007414761888149881  0.003965252290421618  0.029707475950197418   0.06397358755643193  -0.06168370541008045  -0.02517615987265099
 -0.01276349804687705 -0.006578002393541243 -0.004452029228915396   0.02229390149385208   0.07129905127223436  -0.05750230585778104 -0.023979117238863475
 0.016800318359377193 -0.010564352500441718 -0.009906430514187065  0.014315335663477731   0.07671807170110713 -0.052957679133392443   -0.0227692635758485
-0.010601662109374717 -0.007216170598989224 -0.010691595839111959  0.006225264158516465   0.08024095426370985 -0.048092089465139806 -0.021546700409536552
 0.003016286376951743 -0.001486853965045535 -0.007035989292573271 -0.001522196812940939   0.08192486428589953   -0.0429484255012218  -0.02031168509100591
0.0016421401367190736  0.006776051013473789  -0.00180406081923277 -0.008570932828460422   0.08186379540278685 -0.037569369348065824 -0.019064623557160116
-0.005527692382811894  0.010837513349538856 0.0023051573572210058 -0.014717924833791328      0.08017866315133  -0.03199667142333899 -0.017806045218093793
 0.011343584472656135   0.00511824455839672  0.004054602586103404  -0.01981167320862544   0.07701189944372512  -0.02627109367551579 -0.016536564176697202
-0.012777765625000966  -0.00389631397056827  0.003492600682156872  -0.02365068508222885   0.07252195828564978  -0.02043298693670066 -0.015256807353277089
 0.005664659179688048  -0.00889989834315249 0.0025067155424295306 -0.026021861302569737   0.06687708780775367 -0.014523421074049673 -0.013967281810076707
 0.005846448974611212 -0.008437216055160367  0.001995134027787848  -0.02676791539597395   0.06025290062901877 -0.008585129411809573 -0.012668222768454378
-0.013820349121097817 -0.000841343237934591  0.001700992982852224  -0.02584727625982602    0.0528298228611605 -0.002662313024455137  -0.01135953420068397
 0.009062457275395374  0.010088817017981176 0.0011790906583717124 -0.023371784448584558   0.04479137989622259  0.003199875162960466 -0.010040835562322867
 0.005537027587886791  0.013010696663087743 -0.000688685881673158  -0.01952166717177755   0.03632757474680974  0.008955647001059107 -0.008711592945387635
-0.019556766845701658 0.0025292145111523766 -0.003358048219279551 -0.014440513345380865  0.027638313956625495  0.014559084737485272 -0.007371284794908377
 0.030345865722656195 -0.014449661809334529 -0.005547824699776283  -0.00831456388737294   0.01893011580968888  0.019964561342510456 -0.006019492478393711
-0.027122011962888194  -0.01883480961549732 -0.006733727870803719  -0.00150467252537657  0.010405523190050166  0.025127593881139706 -0.004655895096645481
0.0039112910156188785 0.0027563833349993215 -0.006196813183849752 0.0054647007654809185 0.0022471984090459934   0.03000645128665012 -0.003280211627972435
 0.009073755859380998    0.0258806071930617  -0.00438711487274583  0.011974212421979427 -0.005394891319336431   0.03456356842408794 -0.001892137706445574
0.0026962275390600143  0.014015606882814117 -0.001840768012402775  0.017440436234153776 -0.012404459761865012   0.03876627413950355 -0.000491317021302931
-0.005985789062499399 -0.018781493712490195 0.0017673294586477359  0.021456887393473227 -0.018693730187554755  0.042587143242532176 0.0009226528678375338
-0.004914226806642404 -0.025653947042950733   0.00593961717973023  0.023745500270371558 -0.024198169708873948  0.046003988757500544  0.002350237350795919
0.0000681533203150462 0.0002737625600071542  0.009886165480080044  0.024036365997054297   -0.0288739255777491   0.04899945556728273 0.0037920226529409152
 0.012829373046873772   0.02177813281840715  0.012241108528816365  0.022129793736938363 -0.032696880599594476    0.0515607388704728  0.005248733598011088
  -0.0115282761230463  0.015709396821506804  0.011217505164678123  0.018039135421848665 -0.035656187030225585  0.053679265481597335  0.006721160263557164
  0.00638955517577903 -0.004339570420086492  0.006657142114408891  0.012021382645888748 -0.037743451098959636  0.055349965989242654  0.008209975593619415
-0.004661303955074392 -0.015489508746988892 -0.000117552265488415  0.004561842001843593  -0.03894339456682971   0.05657042801769778  0.009715489514719285
0.0015996303710906976  -0.00869644829810123 -0.006873330602857101  -0.00373934813033537  -0.03923212178883777  0.057340124949101685   0.01123749349980405
-0.003872233398436391  0.006983934061649288  -0.01098865892331866 -0.012333653409862895 -0.038588827417536636   0.05766018506394123   0.01277525402343312
 0.008269337890625316  0.012007275185232414  -0.01117139083750971 -0.020674247808879914 -0.037019699508066696  0.057534124781967184   0.01432760029649721
 -0.00205154956054773 -0.000543315672515093 -0.007648458123059317 -0.028081110888409408 -0.034582716176133524   0.05696910837944623  0.015893042041077703
 -0.00539278369140483 -0.013085628962875783 -0.001462831910150402  -0.03379128879302947 -0.031396008320286856   0.05597670037554057  0.017469841302063503
 0.004399782958982614 -0.006945550249221408  0.005276682168136613  -0.03710093648270674 -0.027622282974382354  0.054572284841664015    0.0190560197373788
-0.008729751464843144   0.00932493226635244  0.010158340021676319  -0.03746672089093724 -0.023436591669620973   0.05277341286181824   0.02064937887540771
  0.01739777416992228  0.010280899511515744  0.011295560652931278 -0.034640745739326684  -0.01899746241384863   0.05059840869553238  0.022247565123127654
-0.008502333496091748 -0.004223871426759788  0.007214347721254551  -0.02869384544792989 -0.014435359500366354   0.04806593411132402  0.023848128038426165
 -0.01011591699219314 -0.005746367378054562 -0.001767976297424342 -0.019889540115779963 -0.009850392823278157  0.045194644779822386  0.025448548826758215
 0.007309676025395439  0.008739299070120549 -0.012884739409628202 -0.008722827262332975 -0.005307900971291461   0.04200229023064587  0.027046202316954183
 0.012514032470702945  0.009151029629767217 -0.022149295599549132  0.003985017851712756 -0.000825373461294213   0.03850432036669826   0.02863826874182658
  -0.0171192580566429 -0.008695897790133376  -0.02501193889215832  0.017167749985025814 0.0036335552526925432   0.03471308813613546  0.030221701364953293
  0.00527557080078173  -0.01715043806028344 -0.018503900209642835  0.029626695487195334   0.00813743366230405   0.03063935290927999   0.03179328541025312
 0.002127831787112062 -0.006348720257165012  -0.00359696566769154   0.04015480977620678  0.012744352116909514  0.026295925387765456   0.03334976685676588
  -0.0051846491699266  0.007595548511859523  0.015342374621291802   0.04783757206553099  0.017455831290285648   0.02170130818494421   0.03488801449592423
  0.00636930200195791  0.008973582525789304   0.03147034009530585   0.05224939551387818   0.02219572791731262   0.01688151301543505   0.03640513893025587
 0.005534076904294247  0.001127833247247858   0.03795799632877174   0.05332504778024401  0.026831194921855005  0.011870312846065269  0.037898537971460186
-0.023599370361326855 0.0029005561744607756   0.03180771765351899   0.05123030176178841  0.031222325234360485  0.006708546522449298   0.03936592301469015
  0.02300278100585469  0.013074327934265774  0.014730354076493828   0.04621472012274672  0.035274248773139415 0.0014432272227320438  0.040805340864689656
-0.008062479003896773  0.004430108867642843  -0.00734899135712182   0.03840360820277073    0.0389626427917516 -0.003873061344726281   0.04221517184349512
 0.012039686035147119 -0.020159788721029095 -0.026655090456273907  0.027863845177133792   0.04231890938422995 -0.009183668555496008  0.043594107136160715
  -0.0315254860839792   -0.0215632317733802 -0.037597859060068295   0.01478552600840399  0.045390425534374446 -0.014430440061823993   0.04494106543633748
  0.02955444262694841  0.004061307692884867  -0.03802691945780099 -0.000678877677026133   0.04820944351443058  -0.01955647396379948   0.04625507726420218
-0.009894915527334673  0.018551209364597223  -0.02895014590023713  -0.01860544096911009  0.050781464886169116  -0.02450840387592216  0.047535232021688856
 0.004522789062487913  0.009931328353054427 -0.013104892999040354 -0.039060168858914446   0.05307678369503681   -0.0292375290476397  0.048780689794858875
-0.015223854248037141 -0.001745609297807286  0.007322131399864482  -0.06165319007942301  0.055009476482815844 -0.033699693844463585  0.049990739586945235
 0.026641820068354197 -0.006886681082787989  0.030404738902194597  -0.08495924783547389   0.05639803196214255 -0.037854537831966094   0.05116487581745787
 -0.03152816894530933 -0.006630438358493994   0.05338541039709512  -0.10613101693096268   0.05694832103123435 -0.041664947735892695   0.05230284054230839
 0.024605002929681468 -0.005142202375951034   0.07224669704855131  -0.12140703111698944   0.05629886500523903  -0.04509696800944702   0.05340463651893455
-0.006179236816394772 -0.008318329962958865   0.08117286633934752  -0.12713775227114105   0.05411211019784423  -0.04812020972854757   0.05447055224191421
-0.003883103027355294 -0.003660450588931207   0.07289717070440827  -0.12036487176297497  0.050173018058210124  -0.05070795076835386    0.0555011873850171
-0.016448918212887027  0.015700342654095943   0.03996680392009573  -0.09899959180286319   0.04443845934562407 -0.052836531151203674    0.0564974352470999
  0.04002540234375171  0.016674704265852207 -0.022857501538002672 -0.062194621900441456   0.03701296714267963  -0.05448537144712622  0.057460421133157684
-0.017167857177731498 -0.005987465341119528   -0.1131317693608889 -0.010957671253395938  0.028082381312092692 -0.055637994791436794    0.0583913766123111
-0.019941329345710714  0.008951847079609717   -0.2121918959081908   0.05100923034303842  0.017846403119048598  -0.05628374614722838   0.05929149085928788
0.0036469948730524673   0.06957857254234044   -0.2818400863721012   0.11688983071068922  0.006482202956185811 -0.056419365999689185   0.06016185128944573
  0.01845957885741899   0.06716260829621876  -0.27422803620108555   0.17781925550698124 -0.005850434443661019 -0.056048468353468044  0.061003496337507984
  0.00854213403319893  -0.07802397224066826  -0.15477880836973473   0.22492666553796256 -0.018986714585262777  -0.05517886038301302    0.0618175560073661
 0.006150930664077389  -0.25438286486185024   0.06777894897073426    0.2509633337730327  -0.03275063823151353   -0.0538201109430085   0.06260540062836288
-0.033237427978527384  -0.21809018392232607   0.32673076182816807   0.25107712847356833  -0.04695756539529822  -0.05198240481160492   0.06336869180590159
 -0.06452439379882582    0.1044783048683056    0.5168921065159645   0.22321352767132488 -0.061402231447745224 -0.049675664874639765   0.06410935106565835
  0.10907786450194709    0.4141944347873973    0.5413949079222813   0.16850376184285124  -0.07581884044738126 -0.046908655629665244   0.06482952702270324
-0.000391465820295728   0.34320409842836075    0.3664198078037044   0.09182926927894183  -0.08981472740696994  -0.04368757190095398   0.06553158961732763
  0.00553387353513692 -0.049778755825279464  0.049045914057265015  0.001975205163579804  -0.10284335197421554  -0.04001499564754286   0.06621811069097543
 -0.08461702661131888  -0.34087499197481663   -0.2859416662312149   -0.0897096255853061  -0.11426553300606006  -0.03589192956056205   0.06689177296906607
 0.027490538574214844  -0.28690082485782864   -0.5056851895357554  -0.17171342442846738  -0.12346873334760047  -0.03132253038524153   0.06755516398040255
  0.02755553979493122  -0.05569221984800596   -0.5336828627454543  -0.23448868935026626  -0.12999239484397826  -0.02631890146284957   0.06821052845543568
 0.006916805908198562   0.09309161795134831   -0.3828361427538324   -0.2715831262077843  -0.13358961569251024  -0.02090418913325544   0.06885964992775176
-0.014824094726566504   0.11688219859026347  -0.13796645857786233  -0.27996127625167977   -0.1342027389630676 -0.015113517242610995   0.06950388717150287
-0.023576661132811046    0.1079733317437069   0.09502212853334585   -0.2599857907054184  -0.13190236251122148 -0.008992963769572945    0.0701443178419392
 0.031798464355468126   0.08394115874067089   0.23972644778412405  -0.21536265219184203  -0.12683228018314288 -0.002598049827912174   0.07078191132255407
 0.003679795654300266 -0.000274465951509095    0.2746680137825444   -0.1528663611500722  -0.11917713918244179  0.004007560201957601   0.07141759664512139
-0.002667865478516164   -0.1035506026197596    0.2254325315196754  -0.08123043546491858  -0.10915400612302308  0.010754159063230687    0.0720522191032113
-0.026246723876954207  -0.10536159780837288   0.13610066291416198 -0.009429333667896535  -0.09699988254619141    0.0175684033248792   0.07268647166027269
 -0.00844875244141243  0.009997965848351801  0.045160623161127976  0.054896218488901305  -0.08293878492826791   0.02437587678887916   0.07332085308228393
  0.04401681323243498   0.09310552416126054 -0.025373264900976043    0.1063562058951712  -0.06716474703785603  0.031103796654759354   0.07395567199502513
 0.010432103027335044   0.04011914477947024  -0.06880388501995814   0.14202164850751686 -0.049860604439699946    0.0376825127201056   0.07459108042494048
 -0.06356850390624881  -0.05432608938992918  -0.08483073041807179   0.16124948311144177  -0.03125167270831851   0.04404544783856794   0.07522706547219615
  0.04493539501952657  -0.06171013421073862  -0.07660510518991266   0.16525493990444937 -0.011684627594157226  0.050128137768227485   0.07586339430220075
 -0.02465619140623611 -0.000488718387622884 -0.051033751602973985   0.15655948729686986   0.00834331415393574  0.055867248746963076   0.07649961119871045
 0.031031056396469577  0.042162947595016154 -0.017427754954461756   0.13838212680396664   0.02824266623128477   0.06120083275003006   0.07713512517738003
 -0.03048001074217789   0.03822971563473198  0.012741398565192946   0.11405664530468246  0.047430295296402046   0.06607055826517688    0.0777693976757436
 0.021903347656241846  0.007448390218321454  0.030584274065512583   0.08653805621931436   0.06542685143913088   0.07042390065481234   0.07840217974639031
-0.010403498046866265 -0.025579874287926598   0.03366383928511547  0.058077972394536485   0.08190203066099205   0.07421488443713457   0.07903364555672206
0.0038780795898377615   -0.0329497607602669   0.02446628830491999   0.03015789651627231   0.09665139911127925   0.07740470698296567    0.0796643902546674
 -0.01286378588866953 -0.002078673746459708  0.009251104648100807 0.0035074180207177764   0.10956213754653941   0.07996244223905831   0.08029535718039146
 0.011701690429686225   0.03403161331101358 -0.005000881856985794 -0.021575641325101078   0.12059420689278062   0.08186626316205833   0.08092774938620191
 0.005428999023438708  0.026245016595134486 -0.013794912044746857 -0.044672720273105405   0.12976156092055804   0.08310505833481785   0.08156299744351415
-0.002613632324220128 -0.022635290737043033 -0.014896284874130103   -0.0650301604797511   0.13711273480605501   0.08367784986970479   0.08220278373894531
-0.005366466064449139 -0.050021896745519503 -0.009144066031525969  -0.08168976838747104     0.142691534037351   0.08359063163935698    0.0828490315517979
-0.009170438232428855 -0.011410166925317173 -0.000781371568403586  -0.09365743500544634   0.14648034080044145   0.08285322771464738   0.08350384321603753
0.0006136076660204517  0.047785928841363325  0.005269090625866837  -0.10006473463466152   0.14838551490504515    0.0814771387158898   0.08416945388003474
  0.03949141430664129   0.04522263234807836  0.005546236043835167   -0.1003088628091076   0.14827152140579833   0.07947384003023329   0.08484821867408843
 -0.04011339233398432 -0.011251410866254884  -0.00019950711931812  -0.09394213965497787   0.14601876463019636   0.07685402825885307   0.08554265708504909
0.0009655405273350005 -0.039040701114429435 -0.008079033448580403  -0.08077794148791906    0.1415947532872966   0.07362685345559251   0.08625552878025003
 0.011054182128919017  -0.01909808681221571 -0.013056019986414721  -0.06131244853851856    0.1350782625744126   0.06979926513626702   0.08698984549712291
 0.011483058593745621  0.002694164185937969 -0.012823540572198809  -0.03673503535386474   0.12661860083265872   0.06537793199032621   0.08774882032297486
-0.029136507080084025  0.013799718322884964 -0.008505975880209588 -0.008730778678719324   0.11639184146338442   0.06037290177059962   0.08853580008174712
 0.017272722167975235  0.019348018159044324 -0.003415436406608028   0.02061603416169627   0.10456834437192607   0.05480112287259922   0.08935419467299224
 0.017551134521483918 0.0063665866208705915  -0.00064645081728912   0.04907910744127078   0.09129784481220729   0.04868934788860491   0.09020742953246988
-0.039607859375002025 -0.012067149656299824 -0.000070464077564915   0.07457134097191834    0.0767267766787286   0.04207543020028493   0.09109892525755481
  0.02856804370116936 -0.010119710058340937 0.0009232295218953198   0.09513478762574513   0.06099913483086859     0.035007454424094    0.0920320599541967
-0.008835260009758036 -0.001534208326053003  0.004102075032933902   0.10911443754197124  0.044236771126390934    0.0275420649651527   0.09301011966901639
 0.006676662109367303   -0.0044762049829954  0.009622419064906183   0.11548558608702185  0.026548686596055714  0.019742576168450807   0.09403627495686342
-0.010113112304681255 -0.002045929697972284  0.016321617932470195    0.1137143994119533  0.008059710041551621  0.011676730762438935     0.095113583853958
0.0001108679199175564   0.01823061846859836   0.02205324416744043   0.10371715231446639 -0.011045460173833696 0.0034155329580612672   0.09624504434506807
0.0000715893554654626   0.02398184782617567  0.025660983085100793    0.0861082727163866 -0.030470674454971744 -0.004967684751157618   0.09743366622270659
  0.02276683691407329  -0.01877804467698309  0.026364728681191732  0.062173334943764084 -0.049810348405799725 -0.013398982750962993   0.09868247529442882
-0.007164470214848103 -0.057025322141188314  0.020822287292306504    0.0337325899884469  -0.06859970000892893 -0.021804835983705015   0.09999445106763093
-0.058650929443369484 -0.005226445163722621   0.00608997688181232 0.0030283019708678247  -0.08636524782349086 -0.030112091596601172     0.101372435174249
  0.06065026733399523   0.07986632862159325 -0.016541075897451834 -0.027691503415474144  -0.10267395698977468  -0.03824710409533078    0.1028190444422484
 0.024505500488286154  0.061798632581145346 -0.040739967485464205  -0.05647792432154904  -0.11715238564198305  -0.04613448376544627   0.10433662814483076
  -0.0642843498535315 -0.037504754516895736  -0.05376760362836338  -0.08143328227462189  -0.12946664904528316 -0.053697612478716926    0.1059272517972005
 0.022051018554695358  -0.08683865855947687  -0.04454685741625647  -0.10065923063355141  -0.13932779530552442  -0.06086211738194393   0.10759264074184549
 0.020431897705083555   -0.0563519559174635 -0.014420193218685587  -0.11260027117903633  -0.14651604586770003  -0.06755952511455264   0.10933409359214454
 -0.03200631787109891  0.005681751229338649   0.02334693613157224  -0.11633242683537494   -0.1508860470020062  -0.07372934261176657    0.1111524469591657
  0.02041213256835648    0.0686461075564457  0.048282266649619085  -0.11183287275276389  -0.15237132742381843  -0.07932041647250479   0.11304810987455374
-0.010571538085930983   0.09299996795015605  0.044644057565134315  -0.09997703315652048  -0.15096134651647536  -0.08429128874494536   0.11502118098848237
 0.018783745605460478   0.03882947138429559  0.014599527271288732   -0.0820587648760133  -0.14665985895642872  -0.08861072156847402   0.11707160113970207
 -0.00899794213866209 -0.061942474686482965 -0.024740606698307164  -0.05944830267577348  -0.13949302399916233  -0.09225885915337412    0.1191992093515455
-0.000878345214852158  -0.11225382969736153  -0.05230511069861452   -0.0337838300488251  -0.12954712217412762  -0.09522643707711242   0.12140367491063105
-0.026741574707025442  -0.05373064732267144  -0.05428011644564376 -0.007190054652576426  -0.11700311766439914  -0.09751184529756676   0.12368435608965837
  0.03447738354491818   0.05564393368253411 -0.032757378435242596   0.01788108526767407  -0.10216705117427738  -0.09911814372051565   0.12604017083472016
-0.013144322753902257   0.10180393238627208 -0.000928608621703131   0.03912397146430731  -0.08545611500146072  -0.10005043420662059   0.12846957673294393
 0.014997719970695779   0.04276816461285338   0.02868730346560496   0.05496524679012355  -0.06734827260441913  -0.10031380565051769   0.13097064341545275
 -0.01125223681639596   -0.0532718831032783   0.04934104269094878    0.0648157700156167  -0.04835179008213183  -0.09991302846149026    0.1335411257564855
-0.004741289794933228  -0.08592275574599828  0.060096134233156746   0.06877165570316184 -0.028984439698933103   -0.0988528074970105   0.13617850280025454
 -0.01494521972655261 -0.029420518388059202  0.061565678561759825   0.06717829845043145  -0.00975622670940703  -0.09713802328800525   0.13888001109956022
   0.0414003232421825  0.048095975902815925  0.050174994077446466  0.060631903227440616  0.008829305096322142  -0.09477521785043065   0.14164271630395933
 -0.03977544775390352   0.07517407463083856  0.021467934658873842   0.05032258135296821  0.026303204771579207  -0.09177402859961095   0.14446368093899176
 0.028537103515617536  0.040225981192907906  -0.02207733300750816  0.038025484417956355  0.042278844761836305   -0.0881482574093363   0.14734017652820144
-0.008108769775378742  -0.02546912448622248   -0.0683268591455142  0.025636129872217948   0.05646146965594247  -0.08391763002824851    0.1502697839068336
-0.003408920166026094  -0.06775313225432808   -0.0979458175228383  0.014644687657169126   0.06863982753744653  -0.07910900639574135   0.15325036114389337
-0.013523540771478448 -0.048026335035390555  -0.09378196171848316  0.005786416329969787   0.07865739115159273  -0.07375588199452748   0.15627991203791528
 0.020571187255858416  0.006514372481474269 -0.052828986801496745 -0.000813242189115764    0.0863701178695473  -0.06789687241607026   0.15935642379940407
-0.010377745605471495    0.0337240908620985  0.010301865650227775 -0.005115691345019898   0.09165426021957276 -0.061573606154698896   0.16247782637288014
 0.010548331787111415  0.012064542084331597   0.07014461292295349 -0.007106155846472589   0.09444468559108968 -0.054829101433352755   0.16564208489391596
 0.004298683837896066 -0.011947530822989834   0.10147876538243233 -0.007177940508239037   0.09475426757727212  -0.04770857446331168   0.16884732899651178
 -0.03967882373047921  0.020852284561765307   0.09128944626940474 -0.006066980108976494   0.09268198049927455  -0.04026086350672469   0.17209195601528043
 0.019434491699218598   0.06879529641211654   0.04575421726498763 -0.004493790856195535   0.08840073876596323  -0.03253861763293543   0.17537466434637097
 0.051093898437515356   0.02127856999062452 -0.014723443621059462 -0.002964816404312249    0.0821287473802063 -0.024598386572722022    0.1786944307892495
 -0.03803418798829488  -0.08844979974867495  -0.06505170276086195 -0.001598985604425227   0.07412993676179289  -0.01650077031310474   0.18205050965301467
 -0.05065633056640654  -0.09452918141347294  -0.08469428716007571 -0.000340047342142906   0.06472434912712939  -0.00831096355414937   0.18544246090857203
 0.061429087646490375   0.01903688011576089  -0.06807161892762119 0.0005600488774035768   0.05427531335452133 -0.000099847743486098   0.18887013667638933
-0.013426086669922278   0.08546993825609282 -0.025423695813879994 0.0007236809887645319  0.043174734026052645  0.008056819042606411    0.1923336101697203
 0.013011249999993897  0.022093104384890073  0.023602354688349786 0.0001143138973553486   0.03180873994797629   0.01608220379983549   0.19583303328100532
-0.005087981933583381 -0.061401975119961795   0.05658542372966854 -0.001149117269291982  0.020509825998715554  0.023902366183968418    0.1993684584099035
-0.039792795898447114 -0.028479679220791792  0.060138197240515064 -0.003074524118361071  0.009546926145570777   0.03144913168398108   0.20293974416695293
 0.012574099609374806   0.08456803170564185  0.036619171668365987 -0.005741081387596669 -0.000864895032463474   0.03866211858770098   0.20654655484842854
  0.05284087231446032   0.09440846306576112  0.000843326643642815  -0.00922162348477165 -0.010548527596644363  0.045489073355662754    0.2101884157013393
-0.014613832763672696 -0.052445159931794084 -0.026494957391953407 -0.013220515436518329 -0.019340330740961878   0.05188600872096217   0.21386478754333674
 -0.03995146289063208   -0.1607069892239348 -0.030841453510353195  -0.01679812582869545 -0.027094837793094597   0.05781779047506116   0.21757507877099957
-0.009096749023432903  -0.07014953278162141 -0.013022899531089868  -0.01896554307401124  -0.03370506502243493   0.06325719447872809     0.221318594953215
  0.03444610766601722    0.1022431174143738   0.01243708988921398 -0.019309141596027687  -0.03909448394686803   0.06818280720577884   0.22509450336686987
 0.012173143310544456   0.14030785734466578  0.025939206593308773 -0.017791798311556632  -0.04319824053137242    0.0725770025435577   0.22890182905019482
-0.005937232910154693  0.021505087296087473  0.014948849584171985 -0.014452616701350602 -0.045954258188333284   0.07642371905138773   0.23273945186748973
-0.018443322753908264  -0.08406506354190656  -0.01741743191144068 -0.009446765353725808  -0.04730442467012389   0.07970691403651166    0.2366060941938292
-0.022167746093750888  -0.05714023052933697  -0.05355034750600132 -0.003188206297276144  -0.04722880403499498   0.08241106430637028   0.24050027015419936
  0.03946042236328356  0.024487493703360064  -0.07113894276866949 0.0033084005754622607  -0.04578710411132877   0.08452251605090022   0.24442021418621832
 0.008556734863284806   0.02645093678535873  -0.05543780476292114  0.008426952638546394  -0.04311845226484293   0.08603077235281638   0.24836386038700387
 -0.02288352416992797 -0.035826000296164166 -0.007570346465478578  0.010803894925266047  -0.03941840421679507   0.08692951739176177    0.2523288628305652
-0.011721548828125932  -0.04733124547560313   0.05458117991793098  0.010028853334497968  -0.03490384966571768   0.08721598970131278    0.2563126210149125
 0.012909080810553477  0.012472646052699866   0.10453200100846778  0.006474961670960966  -0.02977299788239711   0.08689000262107931    0.2603123057178443
 0.014602237060543628   0.06266083486611004    0.1194011683000598 0.0008860905810893889 -0.024193637814056236   0.08595442764559127    0.2643248793598799
 -0.02097159252929847   0.05595245108541369    0.0901633106425038 -0.005786827867407689 -0.018302322062366674   0.08441586684816435    0.2683471138822256
 0.015647671386718742  0.011605143011290396  0.026644559311389163 -0.012363320776511583 -0.012193928783844133   0.08228425272966633   0.27237562312051017
 -0.00673266625976101  -0.03450619196404263  -0.04719575907450038 -0.017265369797504378  -0.00591425690088469   0.07957133975335584    0.2764069042425172
-0.005824275878913905 -0.053785342941735835   -0.1044226960745471 -0.018693709803059875 0.0005449815245633837   0.07628868308287055    0.2804373600899569
 0.005261626708989982  -0.04153234257789469  -0.12623849089733014  -0.01545271683516414  0.007233396861694101   0.07244722691687913    0.2844632998219825
 0.011889239013676067 -0.009655113286655397  -0.10940569822422007 -0.007556958200270346   0.01418747641452508   0.06806014064581342   0.28848091363632933
-0.029420732421885587   0.03877881393102674  -0.06451574976046848  0.003972004762139758  0.021371065825432505   0.06314635860920173   0.29248623905376914
 0.004088302734377843   0.06900681023915399 -0.008158453422843655  0.017653464975454242  0.028657066357144337   0.05773263816937518    0.2964751709465627
  0.05524160253906769   0.01606007528094852   0.04395548942974958   0.03186997612461701   0.03584769919642256  0.051854635771833135   0.30044352165656785
 -0.04658280297851257   -0.0769251960999036   0.08160003012471219   0.04486749679784272   0.04273236383136566  0.045556992682716346    0.3043871156409767
 -0.01944571215821829  -0.06525763179720905   0.09921531349503361   0.05459701862964146    0.0491508182097464    0.0388933012715073   0.30830189234868033
0.0031817719726667235   0.05080528162884577   0.09312930915000933  0.058856204413844586   0.05500798678751372   0.03192646862181295    0.3121839774245059
  0.06340343334961085   0.09171831584686999   0.06278612200435171   0.05598752426523403   0.06025643989084902  0.024727445015800677   0.31602971962645415
  -0.0320740349121071  0.001860066420752634     0.013185678854615  0.045492528779377796   0.06487332225812056  0.017371702435188013    0.3198357361631999
-0.039164613281263805 -0.057717686081693746  -0.04252828132638945  0.027946343783393095   0.06883861023901866   0.00993565088780234    0.3235989757782292
 0.010500038085946569 -0.006829424060290449   -0.0842640919083425  0.004471747620515695   0.07212945438978204  0.002493524627156236    0.3273167512443165
  0.05192032373047213  0.025063751300378172  -0.09352994784387757  -0.02353859025028329   0.07470968397388261 -0.004884952693150039    0.3309867317816506
-0.023951737060547634  -0.03648215795345191  -0.06327249233015741 -0.054164678544337826   0.07649014161269962 -0.012134951960225465   0.33460687623512575
 -0.02791461547852383  -0.07062416800362262 -0.003802343486664202  -0.08446773962172181   0.07728493059575584 -0.019196387427405537   0.33817532342134016
-0.000704550781244609   0.00775674957913207   0.05997624021004222  -0.11041304305370113    0.0767992090967108  -0.02601395274156017   0.34169034768986034
  0.03493455175781489   0.09318271717818057   0.10095153064468002   -0.1276282793418243   0.07467252478870899  -0.03253646073001577   0.34515041570176136
-0.002286962158204362   0.06999426011315027   0.10332374843399043   -0.1325426887226751    0.0705825774728333  -0.03871625017247295    0.3485543150327244
 -0.02041755688476976 -0.018057106554610163   0.06896146966814119     -0.12295390963868   0.06434757409391237  -0.04450875869581794    0.3519012880111469
-0.000340709228513456  -0.06638960934075604  0.012765205061211876  -0.09785994838526743   0.05596042801303235  -0.04987143864845739   0.35519107252799303
 0.009414414062502072  -0.05391953374654724  -0.04952544361721455   -0.0573774543934126    0.0455654319514214 -0.054763259159138426    0.3584238449015364
 0.003369510009764671 -0.016783751044020755  -0.10969550140874296 -0.003287563701508743   0.03339815846411913  -0.05914598359551654   0.36160013127501234
-0.006306794921874694   0.03301825773713558  -0.16392212582660712  0.060117251297485096  0.019722927307558064  -0.06298624798771993    0.3647207323931702
-0.009122184326169952   0.09321980881534783   -0.2020006244826134   0.12574139364198503  0.004814422440245132  -0.06625749593695135    0.3677866798473598
0.0007641542968657598   0.10746542579939466  -0.19975295599786816    0.1847048998843591  -0.01104031145618239  -0.06894042464098366    0.3707992121135937
 0.019519817626958823 -0.011343117168098982  -0.12779066925968233   0.22842615665068722  -0.02755097356051055   -0.0710209222995094   0.37375970800926755
  0.03864496997070831  -0.22319646142769625  0.023619480813620947   0.25027764457801244  -0.04443628667576828  -0.07248792711166198   0.37666957985184824
 -0.07225815307617046   -0.2808897716380817    0.2230729498120283    0.2460415578680632  -0.06143689449550396  -0.07333290301004072    0.3795302145388378
 -0.03551370971680887 -0.003372817633080661     0.397302939779489   0.21400384950348267  -0.07830441788947368  -0.07354981782465227   0.38234297378031923
  0.04352046093750141    0.3676090023844165      0.46130945606953   0.15541895810993103  -0.09474147933194396  -0.07313466809184145    0.3851092699218091
  0.08113431958009276    0.3769511866583113   0.36670526029018813   0.07525098299668094  -0.11033346580257988  -0.07208397233973968    0.3878306886164435
-0.014494558837900127 -0.005773480168511523   0.13311527792781958  -0.01752460043609264  -0.12452957511334897  -0.07039307681934683    0.3905090134466183
 -0.12362171875000946  -0.31115029926678767  -0.15457340064436031  -0.11109143847265317  -0.13669744864174269  -0.06805681863285973    0.3931461244075047
  0.05265472583008535  -0.24035282173798905    -0.385119829774295  -0.19347090448985252  -0.14624562414984246  -0.06507337053454275   0.39574382485549636
  0.04521791625978061 -0.009599381994563613  -0.47684266237631057   -0.2549370895941047  -0.15273885650006763 -0.061448586868476034    0.3983036610728752
-0.014742552001972217   0.08494892734618406  -0.41115361059355404   -0.2889741251363584   -0.1559335552700524  -0.05719891745785747    0.4008268331127992
-0.017759854736322328   0.04510859659667885  -0.23271971645823616  -0.29242337783956257  -0.15575815598831577  -0.05235269349145501   0.40331420191644285
 0.007952074218751107   0.01458878894324288 -0.021791053338008452   -0.2655212828547625   -0.1522721040715013  -0.04694973185810518   0.40576630895955523
-0.019772938964846436  0.037333504684107524   0.14756204416217408  -0.21209178357451908  -0.14562870951727175  -0.04104049300626716   0.40818337621575046
  0.03281891040039411  0.051864288060154286   0.23407376658900508  -0.13965760660568513   -0.1360702375030046  -0.03468542261832128   0.41056530167660577
0.0007278603515624921  0.015635541446747274   0.23488658453945166  -0.05847311391624576  -0.12391711783747979   -0.0279534115802071    0.4129116569953409
-0.035249446777346975  -0.02847795235668124   0.17704405411367882  0.020811844233287868  -0.10952205920785293 -0.020919183613582627   0.41522174360764214
 0.024909455566403726  -0.03422159774374912   0.09805644243123646     0.089371323658551  -0.09322271086214952 -0.013660616263696235   0.41749470321247695
-0.004863569824206881 -0.026397746838943147  0.029029877342258596   0.14116011818840218  -0.07531126093782013 -0.006256007633614524   0.41972958970292196
 0.014462874267564246 -0.028866377171589963 -0.013681620723760947   0.17298434240224547 -0.056042587827088854 0.0012179735367235749    0.4219253955148093
-0.036837906494129664 -0.013441115907067891 -0.030622218710197137   0.18419730324374933  -0.03569959903651677  0.008686513833362868   0.42408102306969264
  0.03813625195311632   0.03155584288676843  -0.03373257196993997   0.17643201231969802 -0.014662895171989735  0.016076138964108585    0.4261952210171034
-0.033982878417961083   0.06305157723762723  -0.03567341523173698   0.15354306456728756  0.006571729162208317  0.023314336055205373    0.4282665866262496
  0.03721581054686558   0.03562145487010676  -0.04197084986753409   0.12107340859535032  0.027436814548714338  0.030329724595452093    0.4302936367099045
-0.016144844726549985  -0.03526799181397563  -0.04978245075024726   0.08484374881495803    0.0473872286737837   0.03705342052925101   0.43227488927166063
-0.004017007080090502  -0.07302526616366833 -0.050697638296124094  0.049583786744358774   0.06598177432185263   0.04342041915518866    0.4342089313173478
 -0.01842891455077205  -0.02911505173517032    -0.038902690014667  0.018450181816625597   0.08289616391752708   0.04936985901004437     0.436094451555313
  0.03155375195311783    0.0420830986917101 -0.017477066885017503 -0.006839703543689214   0.09790422798544596   0.05484544848237114   0.43793024331494984
-0.012528281982415844   0.05062042782981684  0.005578148891790854 -0.025681655606622326    0.1108631692972981  0.059796955301188164    0.4397152362678286
  0.01897466430664005 -0.001156140707838385  0.021514226487843208  -0.03830952350011282   0.12170998241984103   0.06418222785276363    0.4414485631397056
 -0.03621638378906905  -0.02719356912934342  0.026172480821902964 -0.045791582657654664    0.1304754652830534    0.0679689784024458   0.44312961106745646
0.0005798537597715798 0.0002865840465358924   0.02419718499530127  -0.04986387187544781    0.1372717872211998   0.07113440677469929    0.4447580550766967
  0.05378990258789016  0.013251166471463313  0.021093643870159284  -0.05218069738927799    0.1422318654453028   0.07366225640271469   0.44633386261045727
  -0.0556396525878909  -0.01987906206389084  0.018824403946030858  -0.05360833427824171   0.14545017282157843   0.07554020172668868    0.4478572704344153
 0.030614023193356134  -0.03718855900120759  0.016175578319971406  -0.05427609648420627   0.14695154275533498   0.07675874717074235    0.4493287640447026
-0.023230207031240766   0.01134245016487745   0.00785772557716982 -0.054004541610115676   0.14670163990013108   0.07731086972905854   0.45074906326884473
-0.003301166015642843   0.07484315501192236 -0.006425170253269645  -0.05254723935354343   0.14466450959060895   0.07719179614268544    0.4521191148759452
  0.03514197705080098   0.04975130812973714 -0.019433426409727676   -0.0496079802037123   0.14085509199097174   0.07639795015574795    0.4534400792849107
 0.013071044921866328  -0.06233840754911116 -0.024221130545764767  -0.04459154926041249   0.13534991920556813   0.07492581278655486     0.454713310439973
 -0.08210486230469134  -0.11438430788813636 -0.016633383794876163 -0.036583647167710516   0.12826599886383355    0.0727728580306089   0.45594034425964874
 0.057670049560550336 -0.026383358243064495 -0.001401280527632113 -0.025033671630855975   0.11972060864001642   0.06994074271747577    0.4571229094822412
-0.002937218017569828   0.09125424768827281  0.009019537690739704  -0.01039064614109803   0.10980736688425309    0.0664387530503132    0.4582629588438954
-0.010795619873062497   0.10989998969125775  0.007562353194341813  0.006161755217617789   0.09861357921621543   0.06228625242092807    0.4593626901315143
 0.015460452148448437  0.024831354227259357 -0.004574218430498359  0.023376662449468778   0.08624086886896735   0.05751334237915513    0.4604245383559975
0.0003066542968687257   -0.0848917367098261  -0.01843749036944698  0.040244765777158846   0.07280293252975135   0.05215975775508581     0.461451116719126
-0.026806931396475598  -0.12035758356237755 -0.022000226290770038  0.055855251630555866  0.058409000740285835   0.04627336664985714    0.4624451222276533
 0.023673479003896623 -0.033019087128582605 -0.012556977430173191     0.068897751008833   0.04314166954535745   0.03990891109134702    0.4634092539081042
-0.043326701416008695   0.10040643394303132 0.0041116263133937955   0.07754439583565666  0.027063971316896553  0.033127113606485716    0.4643461603994192
  0.07263352294921083    0.1286227366861046  0.019843608953924965   0.08029044860024881   0.01026634811674697   0.02599392323401923   0.46525841145861513
 -0.02948879882811329  0.005360908841308208  0.028229356936381962   0.07680536510235596 -0.007089695647483661   0.01857939311384912    0.4661484704805477
-0.005860708007824625  -0.12670834994851768  0.030478338249873706   0.06777868126340633 -0.024753610901078853   0.01095598671255239    0.4670186626303744
 -0.02511351196288123  -0.10375300544093642  0.030000190299846234   0.05419890094069897  -0.04240101026976996   0.00319730016771037    0.4678711362641571
  0.01473285156249112   0.04133611252636103  0.026243328089439535  0.036913632578632366 -0.059675845100858486 -0.004621933938970044   0.46870785428177375
  0.02190328906251054   0.12292579886792561   0.01609346984231204  0.016738351500452414  -0.07622139375223841  -0.01242515553694917   0.46953064001492945
 0.014520116943352514  0.054957757409667546 -0.004134640969144451 -0.004954825762451955   -0.0916870578460474 -0.020133562603263384   0.47034121282681646
 -0.05339498291015732 -0.052300285837359704 -0.031481545304426664 -0.026025353374828863   -0.1057265755082828  -0.02766743018957055    0.4711411731235312
 0.027644772949219968    -0.073468929965349  -0.05425785365030981  -0.04435632444026565  -0.11799935716960036 -0.034949223600630665   0.47193191587583205
-0.000423149169915372 -0.020907771898046597  -0.05963152512162298  -0.05874804432779837  -0.12818872617783747  -0.04190628753099271    0.4727145042251467
-0.006289751953134757  0.024812595582078368  -0.04075135500168734   -0.0689358345903403  -0.13603520886330975  -0.04847205102216032   0.47348960584751315
  0.01109930761719223  0.021671451395582013 -0.003367669535149039  -0.07499111908173373  -0.14135567237309918 -0.054586816831835944    0.4742575188080337
0.0045198913574236305 -0.012687820194309519   0.03532550816653754  -0.07684846316561714  -0.14403755394102305  -0.06019881219069623    0.4750182499666692
 -0.02120440649414239 -0.018369948454447046   0.05689330875492628   -0.0743486580378202  -0.14402138693149408  -0.06526550052469438   0.47577159168666017
-0.001306907714847478  0.031859814732739765   0.05100551289439552  -0.06776418094313164  -0.14128377298981032   -0.0697546059291588    0.4765171399488208
 0.015408977783208279   0.06745562984742631   0.02163744919871547  -0.05809048151747984  -0.13584088304602795  -0.07364294334078172   0.47725425107396585
   0.0185854851074208   0.01383149982399263 -0.014795312873015633  -0.04655390397049568  -0.12777254951838457   -0.0769132295988526    0.4779820110283377
-0.027622284912110204  -0.07631858632250507  -0.03928778344871513 -0.033949404161735426  -0.11724260001886003  -0.07955159668051383   0.47869925554341203
-0.005392233154298627  -0.08731258233853945 -0.040440887164456506  -0.02057112286886422  -0.10450527902553661  -0.08154650264700482   0.47940460719765393
 0.004778695312503783 -0.005472210617015723 -0.020689556195625097 -0.006659829591214772  -0.08989188032552968    -0.082888745265165   0.48009652668101327
 0.011565250976560065   0.07074533437134822 0.0059703291033993645  0.007213652016247113  -0.07378687399662034  -0.08357200550016064    0.4807733130282069
0.0020453906250021054   0.06718100463155136   0.02318331261764823  0.020180943732373637  -0.05661301882030648   -0.0835926724531237   0.48143303966584394
-0.005803950195316421   0.01086729012115106   0.02208888287433269   0.03145544920192792  -0.03882288708312764   -0.0829493294129532    0.4820735444929428
 -0.01205394506835644 -0.031228566087739062  0.006476608371753296   0.04064582589049149 -0.020889301112611693  -0.08164312073102334    0.4826924987364147
  0.01855108764648273 -0.036659674006487175 -0.010911699245987264   0.04760966955168846 -0.003288801183006606  -0.07967913687119556   0.48328755410741403
-0.012491393310542276 -0.023738003077755757 -0.017262077830035496   0.05208470076600359  0.013527346672612661  -0.07706810410724137    0.4838565308858786
 0.007928949462883238 -0.004880372648113371 -0.007691798218349099  0.053637279870564644  0.029163095701613236  -0.07382766629144681    0.4843975121217591
-0.012545688232415746  0.014362251440476911   0.01159314999986191   0.05200900562629077   0.04329050293944762   -0.0699820382232729    0.4849088164485228
 0.021239113769527904   0.02135433548683689  0.027992462464343126  0.047393339263962796   0.05564713413786861  -0.06556032972909571   0.48538894460543447
-0.019452119628902993  0.015545962563754024  0.030786173646993868   0.04039684947667735   0.06602646936760434 -0.060594897174612264   0.48583656174734435
 0.006454695312494079  0.009612993934507968   0.01688252816395126   0.03183353925932757   0.07426811081401234 -0.055120414720608704    0.4862505472351437
 0.002352293701176933 -0.000109451477470426 -0.007130531848338159  0.022446279168190066   0.08025913680984116 -0.049174840528934824    0.4866301141743637
  0.00652835937500211 -0.018262448544201844    -0.028834255525795  0.012816447480856953   0.08394233367068134 -0.042801310509844724    0.4869748740521218
-0.016161895751960694  -0.02095190208905953  -0.03755849063563722 0.0035687927025314565   0.08532260158038099  -0.03604890811348256   0.48728480230602766
 -0.00567895532226272 -0.003401001728601721 -0.029060758209029664 -0.004555252147133012    0.0844720317535358  -0.02897226218747847   0.48756019783976495
  0.04338910351563046 -0.002141127940303148 -0.007799219636886551  -0.01096630205105196   0.08152891634718126 -0.021631019509426468   0.48780164927364683
-0.039962965332033334 -0.009839468599315173  0.014978526534774479 -0.015426075172251431   0.07669375583718932 -0.014089824110810638    0.4880100508412315
-0.011068209228526985   0.01894603617478448   0.02833171029470359 -0.018020243642926575   0.07022482876238817 -0.006418783781441923    0.4881866614197933
  0.03223571508790638   0.04829528327859107   0.02649439485176823 -0.019091675701509107   0.06242662144344438  0.001306577452384349    0.4883330835862059
 0.014642290039056685  0.012029828815697925  0.011421702916745947 -0.019002819256609727   0.05363203126842194  0.009007804025256035   0.48845116219018875
-0.050625384521486495  -0.04248837315619694 -0.007738390460715852 -0.017936039522199076  0.044182645809510014    0.0166076743563003   0.48854286749353876
 0.025906564941402796  -0.03563600519091944 -0.020882315023018256 -0.016075004205668663   0.03440719760265655  0.024033366613789787    0.4886101952604991
 -0.00030405981444067 0.0035112324231812166 -0.021936558548618864  -0.01374648667710892  0.024602776976941004  0.031217962363440526   0.48865513327536475
 0.013124922363269828  0.014371692658492528  -0.01114337153698256  -0.01125101712863082  0.015026085829981736   0.03810098861407347   0.48867969919853926
-0.030985697998041718  0.007560317783607529  0.004965140237175873 -0.008744279918593967   0.00588984852650911   0.04462871695289162    0.4886859544152096
  0.02554255590819842  0.007681138315916798  0.018055575945202604 -0.006256690018705669   -0.0026352550644405  0.050754716854267586    0.4886759580582876
-0.009312482910148167  0.003245345690060399  0.022006675209848253 -0.003712373422061705 -0.010410070169998321    0.0564402039751053    0.4886517016259112
 0.007585203124991952 -0.007561249291068216  0.015080393028128856 -0.001147967928769778 -0.017315157843055366   0.06165275097530089   0.48861502793316575
 -0.01803970898436928  -0.00327891007816278 0.0005396241378755435 0.0010893538841598143 -0.023241719920306055   0.06636376768685054   0.48856759327265903
  0.01567327099608825  0.013306928492491786  -0.01561457582239434  0.002575760196531616  -0.02808999452674693   0.07054672286598469   0.48851088779672963
 -0.00489779785155753  0.009702348904548828 -0.026677612606115335 0.0030284702277645456 -0.031778257689108184   0.07417660695837204   0.48844624205477566
 0.013002890380858266  -0.01864720716023741 -0.027601306403033758 0.0022652915844353708 -0.034261290661015575   0.07723082099646954      0.48837480126119
-0.022142004150391737 -0.028088942419587815  -0.01694907946985149 0.0001951903167839748   -0.0355482764477436    0.0796906369489874    0.4882974752204709
-0.001227287109377499 0.0024902151967915774 0.0031070025867395647 -0.003146979863155993 -0.035706702923334055   0.08154185053750668   0.48821490157349867
 0.023840850585944096  0.026535602100909637  0.026223658755107786 -0.007559654158672689  -0.03485159197340667   0.08277467429590903   0.48812746039288657
-0.006227242187505685  0.006839767394121025  0.043770280931223385  -0.01249726594066117  -0.03312194226080861    0.0833830776012031   0.48803532446109066
 -0.01748290942382434 -0.018923262060052914  0.048029436388310455 -0.016994571818997224 -0.030658453213066348   0.08336427299798518   0.48793848712831706
 0.017553883300775435 -0.004950305985153874   0.03461639415349534 -0.020000411116499917 -0.027593286200772376   0.08271898636676546   0.48783673948005857
-0.023258462158193736  0.028021543984839088  0.006033104033762469 -0.020664110945486397 -0.024040479793441996   0.08145177503998431    0.4877296298372297
 0.040466042968738986  0.029582239427637165 -0.028575335685229974  -0.01839618960232016 -0.020081117633438665    0.0795699271953309    0.4876164333279567
  -0.0397219870605364 -0.008916602491140697 -0.056707880596168075 -0.012939683517849774  -0.01574662529204249   0.07708160372424601   0.48749617523217825
  0.03295789868163105 -0.046424509138478474  -0.06701540524522903 -0.004412226105447638 -0.011012929255862643   0.07399447132334297    0.4873676997387029
 -0.03282996435545918  -0.03967891929657417  -0.05530261883062992   0.00663073395394278   -0.0058196821958315   0.07031572874890839    0.4872297219743345
   0.0162587192382721  0.007870155208531914  -0.02604699945809104   0.01907979561852334 -0.000115840978293523    0.0660553273571752    0.4870808430125842
-0.000241453124992818   0.04488297114063725   0.00975228491528488   0.03136054738699804   0.00609583641577338   0.06123027750868775    0.4869195357563559
 0.007857889404292164  0.030573876559267257   0.03924933685036279   0.04187395911514713  0.012742946381814457  0.055866851549014225    0.4867441401388436
-0.007048393554684076 -0.012491287320854574   0.05397998744307095    0.0493127893283103  0.019692945081067458   0.05000105795497617    0.4865529010668599
-0.005883342773440018  -0.02710078976441554   0.05186653730027019   0.05266957351918247   0.02678964808369535   0.04367831228949939    0.4863440613439414
-0.003795457031250549 -0.000859742489348685   0.03647376218426753   0.05122131957422358   0.03389118911294158   0.03695297851916092    0.4861159501287375
  0.01803110253906514   0.01774324315243857  0.014716996938869216   0.04450899519607251   0.04088031073153489  0.029888347366238785    0.4858670040745172
-0.000295437011717541 0.0007438900773021882 -0.006878725270535123   0.03243600774767199  0.047660611000390936  0.022555898546243642   0.48559575490937834
 -0.02118450781250567 -0.013599684739937138 -0.023217180700752828   0.01552851617391144   0.05413999717164006  0.015032043857731296   0.48530081604863023
 0.005749906494143155 0.0009689629957693256  -0.03061516232271155 -0.005058433089577527  0.060216065416625116  0.007393737937973792   0.48498092256648667
  0.02069883886719152  0.008636505015663891  -0.02787547316941706 -0.027955562058554442   0.06578124891014844 -0.000284587418675261    0.4846350298523439
-0.014877848388676942 -0.010331099366018618 -0.016190811472753773  -0.05183259982779828   0.07072041095840174 -0.007932420686164371    0.4842623687817134
 -0.00751126391601406 -0.018878030466023765 0.0004766330560552356   -0.0751651719126883   0.07488057858717362 -0.015483158406321505    0.4838624130565659
 0.013201550537110255  0.005546074273233063  0.015679087960691458  -0.09593067868208416   0.07803391721588585  -0.02287374408697009   0.48343479278093704
-0.013945835693359894   0.03361495049406057  0.024426449503092376  -0.11143763558683867   0.07986270079816982 -0.030044853929456033   0.48297922441319685
 0.017164632324216715  0.026990026380669038  0.025964855088345555  -0.11857067975847277   0.07998781322855139 -0.036941175948566544    0.4824955286841735
-0.002835216308589689 -0.015563454404584497  0.023825359421807774   -0.1146819213943823   0.07805555129532203    -0.043511062324417    0.4819837437137956
-0.008820980224611152 -0.049110909940901684  0.023001572548553326  -0.09827110961168331   0.07382681037795077 -0.049705614441652744   0.48144423129128255
-0.005874985107425439  -0.03307197391113042   0.02250887937969389   -0.0689006100641748    0.0672119925491325  -0.05547800832666505    0.4808777054794612
 0.007196000000004541  0.007693843960127644  0.011538525293368424 -0.027105711804375536  0.058266806527411334 -0.060783675152593475    0.4802852111749044
  0.02384084863281286   0.02593613482449289  -0.02418148739472151  0.025168779433506306  0.047149503172666696  -0.06558183476308145   0.47966805609314617
 -0.03458797607421892   0.03922180514291108  -0.08974612839766381   0.08402909961374999  0.034074752905466535  -0.06983733107158024   0.47902777788018447
-0.001025578613287138   0.07773686941202616  -0.16708860385305885    0.1433212608224347   0.01930247246504098  -0.07352159826985531   0.47836617803558656
  0.01543460253906676   0.07441494397372496   -0.2121015155461228    0.1951390605825752 0.0031311450318077852   -0.0766125556114086    0.4776853190292537
 0.020985734863284384 -0.052720449218358764  -0.17644247285324838   0.23166604448824984 -0.014110382544638752  -0.07909294659734047    0.4769874718608929
 -0.00890052026368248  -0.22428124534915997  -0.03953730541121911   0.24692208648244626  -0.03207447947652983  -0.08094854085061078   0.47627500486754865
-0.035729771728496035  -0.23556264506314076   0.16813803561394675   0.23728262726828203 -0.050419765544220355  -0.08216771239056478    0.4755502318430836
 0.019085945556625225  0.011411735181219816   0.36392710097928327   0.20158957148311246  -0.06881535089053586  -0.08274135320411047    0.4748153508934148
 -0.06398837670898787   0.32894131112669966     0.452698586972723   0.14147038475723908  -0.08689671219741428  -0.08266170963116387    0.4740725156800563
  0.14073960058594842   0.36443689383083017     0.379350060699602   0.06173716041691596  -0.10421177178083947  -0.08192087352284656    0.4733239297695622
-0.021932047851558393   0.03932021862526084   0.15897337037522108 -0.029315599866236212  -0.12019895263313718  -0.08050986618307572   0.47257187753257135
 -0.11749113305666467   -0.2830166328492541  -0.12210187365487765   -0.1206178813132772    -0.134216709545743  -0.07841941767095909    0.4718186480896519
 0.060154845459005075   -0.2812750923483928   -0.3516136084399545  -0.20072327981686514  -0.14564693669651427  -0.07564427141421683    0.4710663432558135
 0.017090077636720567  -0.06352238780930408  -0.44950423044871773   -0.2602335471884328  -0.15400337506461478  -0.07218827139081956    0.4703167342640969
-0.025683146728525143   0.09981518566759216  -0.39622296463502965  -0.29284809810553003   -0.1589743610839909  -0.06806685944328925     0.469571244327795
  0.04302175170898532   0.11524933523676674  -0.23579270781225536  -0.29562207007481867  -0.16042456453702478  -0.06330768832788174    0.4688309438052945
-0.046403200927729225  0.049153116085617635 -0.043859732277865264   -0.2689021654185179  -0.15836151910001536 -0.057950030260783325   0.46809653189831424
  0.02094854589842883  -0.00742670545475187   0.11487120420119612  -0.21627328763428158  -0.15289921230302397  -0.05204381272401555    0.4673682680154035
-0.005428085693348072 -0.016744589919861073   0.20428378154356255  -0.14467298686933128  -0.14425279284585754  -0.04564920002367778   0.46664587380749406
0.0021767050781149196 -0.000440775053162974   0.22144296312002873  -0.06372889422330084  -0.13272507773127637  -0.03883547154491969    0.4659285503535135
-0.002110352050774836  0.008594760489716666   0.18601314937898777   0.01627326416712118  -0.11867201757170683  -0.03167791535923269   0.46521511094491486
 0.011435135009762976 0.0006916508441180927   0.12212677321083068   0.08650430362003485  -0.10246282762287746  -0.02425416487774909   0.46450412981485667
 -0.02076988842773429 -0.011459344697766919   0.05243949079969058   0.14071559706909356  -0.08444225484324003 -0.016641653260923636     0.463794053359781
 0.015701555664061388 -0.016194969491668352 -0.005730426796883882    0.1755256090855383  -0.06492355414976941 -0.008916443590727957   0.46308322927826767
 -0.00112193408202624  -0.01539299592543516 -0.043620026104692025   0.19006227299765988  -0.04423465170996281 -0.001153512514396062   0.46236984733762393
-0.007062823730474918 -0.006101240435182969  -0.05930546783286991   0.18556391964293073 -0.022774093193025577  0.006572802273119571   0.46165190327424727
-0.002244098632809798  0.013593858280964726 -0.057268386987545314   0.16529151337290868 -0.001034257045350519  0.014189137658714643   0.46092723335188057
 0.014613532470704389  0.023589870360979207  -0.04618265943218881    0.1341085411134953    0.0204173112361477  0.021623834988561547   0.46019356926108285
-0.010190180419923972   0.01028066801268129  -0.03334300887282726   0.09743494695718016   0.04101592259425068  0.028808040793507187    0.4594486109339295
-0.001448999023437196 -0.009289327010756342 -0.022227310385092017  0.060134945578752375  0.060281991573042315  0.035676643168887925    0.4586900560974136
 0.007641986083985122 -0.016294408107767454  -0.01323263447165331  0.025767974571231186   0.07785079490984251   0.04216871339043425   0.45791557362274155
-0.010258404296874772   -0.0098583912522848 -0.004915314310018177  -0.00361125270847661   0.09347438810621594  0.048228152959410645    0.4571228215008394
 0.008880630371092454 0.0029458968053505223 0.0032375798377100623 -0.027091824478879388   0.10700416702598611   0.05380500779038059    0.4563095426471627
-0.005707279785154358  0.012816329503307055  0.009790770025311094  -0.04451282296925635   0.11837369008248044   0.05885661354961938    0.4554736995924789
0.0030339362792940945  0.010963414452913866   0.01345829839100821   -0.0562912656297987    0.1276009509075316   0.06334808867907948   0.45461357691871856
0.0015312739257841732 -0.002723753940169566  0.013762572733776708  -0.06323497967536815    0.1347761910277552    0.0672519072398412   0.45372778868709757
-0.000221500244142247 -0.014747121668999564  0.011374452377354793  -0.06633336910229984    0.1400214971930577   0.07054584510283735     0.452815196340881
-0.008059707519530272 -0.008567978870630988  0.008077373551571353  -0.06652538342626714   0.14344493015969248   0.07321092934794109   0.45187483675590484
 0.006136298583982162  0.010686850597383052  0.004701775982785511  -0.06440552839173497   0.14510776171357398   0.07523091785325271    0.4509059236594318
0.0009746035156273907  0.014767612026394416 0.0012510321648053382 -0.060150494299380866    0.1450211863370489   0.07659218521393531    0.4499078750402497
 0.008227088623047248 -0.004874987931906028 -0.002241347723475551 -0.053729909933585604   0.14318280095473757   0.07728302988955067    0.4488803261203183
-0.016869241943360765 -0.015041357399462267 -0.005900720077135918  -0.04510672851822801   0.13962008003185714   0.07729287369674628   0.44782309420828165
-0.001420422119143766 0.0034637606276274628 -0.008683230940286746  -0.03439153768753832   0.13441050828438325    0.0766118078601151    0.4467361139735546
 0.019039712402351108  0.015144303840516599 -0.009140323923759632  -0.02193807020627912    0.1276795037106382    0.0752314509891746    0.4456194231860973
-0.000781238769535968 -0.004364512051405012 -0.007061717342611728 -0.008256948427688033   0.11956983764941428    0.0731483503500209    0.4444732285905519
-0.026002756835937994  -0.01926845763766855 -0.002859397597227248  0.006073695830968536   0.11020929719808949   0.07036762049578742    0.4432979985447588
 0.023201560791016648 -0.002309024109304222 0.0016912087161990888  0.020348770538004567   0.09970450922139527   0.06690446713175241   0.44209450770972686
-0.008008411376951035   0.01817255583739418  0.004298045202158482   0.03374460116069316   0.08814494877834794   0.06278445540372163   0.44086380499344546
0.0037386174316368227  0.013203777565303606  0.004381720364129312   0.04541508255323019   0.07561070625175398   0.05804300423044754   0.43960709160231914
 0.001039720947268809  -0.00610226892363872  0.002377205227286827    0.0545493921199035   0.06217659258225365   0.05272477107161738    0.4383255869741485
 -0.00792330395508007  -0.01416718373668463 -0.000026207377566664   0.06048708004654541   0.04790763779053536    0.0468835061739837   0.43702047105711106
0.0033637978515629096 -0.004628605814281941 -0.000515172313274203   0.06282228563062943  0.032865585777897034   0.04058124142215439     0.435692867444172
0.0042810717773447545  0.006060255256175523 0.0014545320534123476  0.061384796691393836  0.017134224681367712   0.03388628331688101    0.4343438362223038
-0.002551097412110556  0.004107800998272877 0.0051684349068938495   0.05621699007533696 0.0008484854838252574  0.026871051756239592   0.43297433419043835
-0.000434625244139743 -0.002737502025006454  0.008882959350962841  0.047609475906910774 -0.015788938242797732  0.019610499106279766   0.43158513114670644
-0.001045458984376207 -0.001346810272395564  0.010284393287825024   0.03607865753549234  -0.03251076340694469  0.012181202443372648    0.4301767793959578
-0.001463072753905068 0.0050761979758737275   0.00856540401226736   0.02232804626744469  -0.04900843397104443  0.004661165567846192   0.42874969290047094
 0.008309637451171754  0.004825866092324118 0.0041372417177416585  0.007252792644100435  -0.06495914802170578 -0.002870666486852413     0.427304276602193
-0.009073827636719597 -0.002349387503804143 -0.001728393400660347   -0.0081301702035361  -0.08004172205949776 -0.010335507766403582    0.4258410085696136
0.0032897717285162434  -0.00690727931189736 -0.007083983981824242 -0.022784111204051702  -0.09394579567395457  -0.01765601393721792    0.4243604123794438
0.0030681171875003048 -0.003984683688401731 -0.010705250710950145  -0.03574345551701578  -0.10637546227468817 -0.024758178659088376   0.42286291366168144
-0.008875013183593966  0.003708023385528085 -0.011883396537871788  -0.04621752670934242  -0.11705258074333157 -0.031573210839368995   0.42134870462704105
 0.009443443115232876  0.007976285582187059  -0.01036432786332467 -0.053652797272247206  -0.12572670805557187  -0.03803860032429573   0.41981770481709685
-0.003557125488278366 0.0006253857282980358 -0.006792123693190463 -0.057716569046523815  -0.13218528431379933  -0.04409884460055296    0.4182695614131428
0.0037102551269509398  -0.01113080266267396 -0.002109675732210067  -0.05829680230780857  -0.13626173491819762  -0.04970590806327857    0.4167036685563234
-0.009849293701170747 -0.008030960772396794 0.0022448230795068143 -0.055552546933321754  -0.13783919858342844 -0.054818969638691296    0.4151191465486272
 0.004821022949216829  0.009360025205613446  0.004653338087044551  -0.04991297361594204   -0.1368503178069454 -0.059403867787635796    0.4135147729677852
 0.005070835693362106  0.015090262113574393  0.004519332440285454 -0.042038153667249056   -0.1332809168008923  -0.06343234081878593    0.4118889810388582
0.0006025949707024268 -0.000116921646294584  0.002223988952340471  -0.03270790323635703   -0.1271791347036152  -0.06688056357446666    0.4102399392368462
 -0.01032424902343971 -0.011803473117889384 -0.000834833316693674  -0.02266295793837605  -0.11866709073953059  -0.06972807514618971   0.40856567928127463
 0.003037186279298492 -0.005366683599595593 -0.002627595817103655 -0.012547890019736609  -0.10794645045338146  -0.07195779407842307   0.40686422768810193
 0.010636319580079802  0.002471369676945422 -0.002079321919753747 -0.002949977370635205  -0.09529197248388249  -0.07355605465401997   0.40513363717043077
-0.010940368652346679 0.0010744329526455928 0.0008021624122414954  0.005604345828501334  -0.08103621258704115   -0.0745122462868853   0.40337188633205046
 0.000014204101563992 0.0003417898049998435  0.004989275298762162  0.012720859162002707  -0.06555148147786775  -0.07481841244835276    0.4015767655580621
 0.008434668212890085  0.003097524836242172  0.008409435112431066  0.018199595385303375  -0.04923604577818106  -0.07446902344415372    0.3997458456746281
-0.010789725097655247 0.0015715216530507122   0.00940558037693456  0.022082651950175433  -0.03250312891054466  -0.07346144380933237    0.3978765438365228
 0.012582252685545192 -0.003464792807642815  0.006994795610102654  0.024579690106600247 -0.015769884439867536  -0.07179733731385102   0.39596627615825675
-0.011943083740232107 -0.002897679506001077  0.001315102166745993   0.02589803477951166 0.0005537004204012913  -0.06948363211438155    0.3940125579931024
 0.004258578613279096   0.00594777720332854 -0.005598765178291853   0.02619820659804121  0.016077555055389235  -0.06653235783596219    0.3920130055433538
0.0008464890136723443     0.011120695290688 -0.011083238048589811  0.025668112338688993  0.030443124678163777  -0.06296056093204343    0.3899653776585471
0.0013210388183600556 -0.001755174408619232  -0.01252981447415397   0.02455333648396248   0.04333375028869169  -0.05879083702265274    0.3878677003135213
0.0055397778320319425  -0.02195259981650907 -0.008850293508922887   0.02311606456171665   0.05448112582812082 -0.054052537417105584   0.38571846251976544
-0.016690296630860923  -0.01745204523760386 -0.001815456584482184  0.021556375901357065   0.06366765774069935  -0.04878303587857025    0.3835168006885529
 0.005272713134764699  0.014250195089166457 0.0054248054423746825  0.019904415107001486   0.07073120568143404  -0.04302785322604986    0.3812625187704028
 0.012411871582035158  0.031044922933765814  0.009521407823220475  0.018060574325121075   0.07557215368997809  -0.03683988434701919   0.37895595399199583
-0.004596594482425631  0.009051219704035862  0.008909675264025217  0.015969429954161087   0.07816507676949316 -0.030278627404424243    0.3765978201942152
-0.008826537597654475 -0.020300874803071193  0.005016734067960783  0.013672213497587911   0.07856795383907335 -0.023409597792616574    0.3741891087877942
 0.007570916503904821  -0.02099167965740919 0.0003873074295220716  0.011233626569530752   0.07691740254626914 -0.016303636771603097    0.3717310633788496
-0.009133788818357108 -0.000062831622485388 -0.002548456331467751  0.008688411022271993   0.07341215305480404 -0.009035696231444556    0.3692252089257512
 0.015560147705076162  0.013444510237461467  -0.00286227091188033  0.006030925465665232   0.06829100297138324 -0.001682658496294005   0.36667334302766685
 -0.01187523901367023  0.009241092522152996 -0.001666870281916547  0.003273672312868099   0.06181583825840313 0.0056790356963735585    0.3640774705048745
0.0025056047363254987  -0.00082996606725338 -0.000378858654132033 0.0005702337346959752   0.05426315208020293  0.012975074330757088   0.36143975983847826
 0.002505735107424505 -0.006600441427832883 0.0000126357257471244 -0.001825336210051998    0.0459190621971746   0.02013480807877855   0.35876253652783335
-0.001977200195312772 -0.006515024248783779  -0.00070458743795049 -0.003742764620586076    0.0370716406102194  0.027092611253144338   0.35604832463834146
-0.001127878662111261 0.0004127508808977584 -0.001927956666250604 -0.005170630742286566   0.02799808170924226  0.033788732868922644    0.3532999006106621
 -0.00128126025390484   0.00826397416443034 -0.003127775686070535 -0.006227761034565127   0.01895569996763099  0.040169867957700556    0.3505202548838605
 0.009215873535156696  0.005020388357880556  -0.00393605293654101 -0.007107985954051179  0.010179271011246148   0.04618907503475614    0.3477124309506301
-0.008741443359375784 -0.005466872817457425  -0.00399186090123753 -0.008007577196697868  0.001887761899181727   0.05180467252145992   0.34487931985319614
-0.001766942382813156 -0.006960426947895015 -0.003067425630949192 -0.009139193882147387  -0.00570449613585648  0.056978968936090876   0.34202351604263337
 0.007238410156250943 0.0001839988908742608 -0.001037997951113442  -0.01081876807002039 -0.012390449116493533  0.061677519591468576    0.3391472864980967
-0.003605000976561127 0.0033301111123572925 0.0018826785468544147 -0.013377344663172913 -0.017987947701391924   0.06586886462999082     0.336252639050991
0.0012530410156214845 0.0025191844712530603  0.005039904180469431 -0.016945641647400343  -0.02236898638967033   0.06952511122465334   0.33334138714414174
-0.006236148437497094  0.002851028290988838  0.007900789484596358   -0.0213415549799276  -0.02548526198884677   0.07262300189058966    0.3304151457391754
  0.01293196313476441 0.0000810014336099092  0.010142499616448055 -0.026042277265837348  -0.02736872621164246   0.07514421525768576    0.3274753240340503
 -0.01162204589843636 -0.005709720347048148  0.011566385382504775 -0.030268919768814927  -0.02810864166198222   0.07707477141995815   0.32452317087290594
 0.003480004882810176  -0.00533493912041278   0.01198602789447048 -0.033184509149238234  -0.02781963685058471   0.07840418265217391   0.32155986968987094
0.0003352658691435589 0.0014295433432436851  0.010222312967686064 -0.033987041930967334 -0.026620604437909888    0.0791248940764909   0.31858663011141153
0.0016589948730438302  0.004560949384686797 0.0045775392837692835   -0.0319144189637398  -0.02462903824855066   0.07923228513525887   0.31560468853462886
