%%%     tilde W_1              tilde W_2             tilde W_3             tilde W_4             tilde W_5             tilde W_6             tilde V_6   
-0.009633246524302887  0.017088752653856867 -0.005789681266338263   -0.3875328439378788  0.018139603900662188   0.03005723104602423   -0.3353299192705495
  0.03367002524058966  0.016049491461557187   -0.0089793555363753   -0.3126818096596084  0.012619338472234549  0.028772234909489144   -0.3361730178592308
 -0.02410075145881415 0.0016761453328741072 -0.004979494097393532  -0.20608466587772922  0.007251048874543352   0.02774978314572597   -0.3371432914290229
 -0.09435332234115767  -0.01349146465888948 0.0008877877159126461  -0.07314118705497641  0.002326233805970017  0.025598687963917108   -0.3378544613084312
  0.11709014512082194 -0.006096025796223115  0.005146746064431334    0.0570889845029197 -0.001931173822326467  0.022091475517002076  -0.33820371105308916
-0.009675489700548216  0.013814546725230456   0.01062323332829225   0.15820576237938438  -0.00524779350993552   0.01781143660934996  -0.33830117473986765
-0.010102892937660597   0.01215278343888367  0.012871823606122984    0.2197894045784231 -0.007223392912789702  0.012455773086517023  -0.33805734753377514
 -0.01886617294533465 -0.003021783126758767  0.014203842845431457   0.24021371508188402 -0.007936512825825538  0.006706771596597563  -0.33766129096436015
  0.02027643309101211  -0.04271223654979437  0.015819029800124885   0.23206340967169645 -0.007403594573366748 0.0012734650590978391  -0.33728427882677475
 -0.01375903515946192  -0.09621345828680962  0.014871767792836962    0.2073436090131061 -0.005311734378355628 -0.003990898889391158    -0.336888805994096
 0.000084737496698269   -0.0400676892243992   0.01587509738935428   0.16851553476080822 -0.001653233661626487 -0.009320489444850363   -0.3363916047812285
 0.005205795025100829   0.09616296395807897  0.018498974852040585   0.11891857083581134 0.0033823689133570083 -0.014081869594602702   -0.3359267344917391
-0.001002979240770529   0.10642080426743224  0.021665899246660462   0.06989753069764354  0.009205143662555513 -0.018252615246674733  -0.33547311273760444
-0.000623445882900497  0.011278996954252524  0.025569873301337188   0.03086052279614898   0.01512249873909213 -0.022010029169133208   -0.3349702664601202
0.0007954076024415686 -0.028356093373038564   0.02290338261379513 0.0053761662089285445   0.02077923556358022  -0.02505458975415154   -0.3345025463310479
0.0003111212513193292 -0.020273200936638182  0.011470878853715137 -0.006096221639814381  0.025925087946305016  -0.02764284239879688  -0.33399781322171224
-0.002714325028827651 -0.017676503640760902 -0.003802052204517743 -0.010567021678732684   0.03031929378918135 -0.029893928152046934  -0.33350138158346304
-0.007456151202602413 -0.007353371229056377 -0.022838352154625992 -0.013830611292838635   0.03391514498471874  -0.03164805824446974   -0.3330625580288731
  0.02092136767826895   0.00584456446363985 -0.045386536280133144   -0.0164955981587948   0.03660024246152093  -0.03296930541353707  -0.33258586532362266
-0.009728756323598558  0.004860492863530461   -0.0651845277245434  -0.01929064288793391  0.038348345959749425  -0.03382498093189812  -0.33220673738590395
-0.008161548867515456 -0.000671312184807726  -0.08694992663432255 -0.022329583512149975   0.03995628658169683  -0.03401469520083701   -0.3319954137658607
0.0032490426931799906 -0.001883952218305084  -0.10293071315223255 -0.024575857564718008   0.04220153304416968 -0.033514238916993525  -0.33193696007863066
  0.00569266492534847 -0.004367925728741616  -0.08823617437848764  -0.02565047322289135  0.045311932965044335  -0.03244236304051491  -0.33205377144309933
-0.005641882897174733 -0.004507669018579811  -0.04827331858094339 -0.025114532253206923     0.049316056216145 -0.030752296133734702   -0.3322920636558641
 0.003363350829980254  0.006910192874354625  0.014382819662804138 -0.020818883928046653   0.05339828015331724  -0.02877578411183169   -0.3325741409252669
 0.004886620631212785  0.012117998689468473   0.08411788383709191 -0.012659662817583614   0.05631273815936948 -0.026569466360240837   -0.3329275985346343
-0.009321215453300868 -0.005139035638845072   0.11657685750880793 -0.002130010140551898  0.057413679024401934 -0.023744879206928325   -0.3334270270446163
0.0003865776657225057  -0.01618365571464148   0.11048186929812308  0.010656992289239942   0.05644812398073307 -0.021174741375768073  -0.33397293374804377
 0.005875050328059427 -0.003222856337525032   0.07507323995736122  0.024369955549196316   0.05406595078802462  -0.01949204465616745   -0.3345217548926404
-0.003907883274257928 0.0072584609634780825   0.02324407416207633   0.03687548439726168  0.051204685505881975   -0.0186311736068272   -0.3350705164963285
-0.000480411808343765  0.005887116734794317 -0.011643932067039554  0.047738796481577306  0.048214139112809536 -0.018499211442281654  -0.33563641054596877
  0.01077539318302891  0.004593231587282472  -0.02515055565963895   0.05615934704933179   0.04536856128200897  -0.01885511422310372  -0.33627783284808144
-0.003344705824216209  -0.00146387673836263 -0.026985595075660798   0.06072078922186182   0.04340340932316436 -0.018397601179030436   -0.3370737956770087
-0.015272299269901347 -0.009026904400055756  -0.02153424589983627  0.062185323813737474   0.04335403787974529 -0.017038733149055366   -0.3380170119562522
  0.01117622170334882  -0.00248406104490746 -0.017242318382873368   0.06193095087127144   0.04634060851565339  -0.01603730859560335   -0.3390126927502618
0.0007462688525305371  0.008218051285455462 -0.016248733311093444   0.05928038343222485  0.052183040206003464 -0.013368270637162725  -0.34015084344585345
-0.005245366408711264  0.009942870751418361 -0.012521676951605228   0.05384659798726156  0.057213230629622996 -0.008771961915957882  -0.34139708975225164
  0.00880564786175736  0.011636983125598604 -0.007400216281449178   0.04513267087121864  0.057639205013038486 -0.003084821134475897   -0.3426708125315061
-0.006178851791986593 0.0072347214993485525 -0.004734227008285829  0.030749624240392376   0.05168644759556107  0.004108292241297624   -0.3439725488367192
-0.004482725736379943 -0.011876239513261905 -0.003277994355151177   0.01099278520969675   0.03908542685664794  0.011745769328100404   -0.3452247004068595
 0.006312808321154894 -0.018351164659551895 -0.004499839329204712 -0.011676841885151284  0.021868404275904696  0.018900930974350392   -0.3463912652769394
-0.001282739210122751 -0.002584391833120424 -0.005183649935376204  -0.03684028807227252 0.0025817397009841314  0.025866908776175798  -0.34748038310124907
0.0029129802730933248  0.006496984471805653 -0.001365818191065083  -0.06489197376937247 -0.017404366456795356   0.03298542731089871  -0.34848829841544066
-0.008415682767674057  0.004001784111020833  0.004594820655296567  -0.09369668273983925  -0.03719946867308469    0.0395760291543945  -0.34941308664399146
 0.007075561040733768 0.0001792601163924466  0.010804649014770143  -0.12184756624962392  -0.05615500939199837    0.0457574474192172  -0.35031204956940426
-0.004216723558903283 -0.006814792196956623   0.01553272260017937  -0.14573693888700445  -0.07398152542146569   0.05172381446535749   -0.3512246761791898
 0.008923912591419628 -0.007285070007713702  0.018039344944129482   -0.1574488974220176  -0.09027536724084606  0.057067948399426346  -0.35210409172954077
 -0.01063562986627652  0.001992944252659737  0.020203055846658942  -0.15575439018919518  -0.10500409845165096   0.06212148158315385   -0.3529480792987172
0.0009732692495716261  0.004346757869604246   0.02362465582284189   -0.1434037008422223   -0.1197300719229536    0.0666939248557146  -0.35366303271695754
0.0053962668808591845 -0.001806562721697356  0.026450456936241522    -0.121240031468063  -0.13667743628345064   0.07046883994438664   -0.3542148616813978
-0.005950859008528018 -0.003726795790664511  0.024608453908894674  -0.08999647228414183  -0.15785366815302218   0.07371527936034215  -0.35470716878748665
 0.014271420038851752 0.0009296096864201651   0.01634701671101469 -0.052537425755926126   -0.1829282096856132    0.0758912185483307   -0.3550044314670871
 -0.00779331360756871 0.0045203318251212515 0.0033224748165360278 -0.009655572675715339  -0.20608375893973255   0.07673873456238947   -0.3550699529223534
-0.020123847176877485 0.0000736054217313105 -0.011415071029490374   0.03414050134584186  -0.22139990495910056   0.07645678850655123  -0.35493346493398714
 0.019703171023820316 -0.005397549092801046  -0.02186364406413488     0.067689332670894  -0.22600202929161642   0.07506443478560262  -0.35454318103381893
 0.004152100123068259 -0.000847144988319757 -0.024825084794015267    0.0888284173294749   -0.2193858452873661   0.07275456844884487  -0.35397479986306996
 0.004396840850462328  0.007018495496257184  -0.02450810139620909   0.09948723105688681  -0.20400059743556218   0.07001567711274291  -0.35330006808839226
-0.019804822219882896  0.009387623551909696 -0.021892801028409348   0.10028991039996644  -0.18270020114542315   0.06680846937559877   -0.3525443846116326
 0.007777713981434856 0.0008807476393119414 -0.019058433302553288   0.09320708025228464  -0.15693086300112352   0.06270835780884637  -0.35174447256321933
-0.004617560195801626 -0.016477267486130695   -0.0189158523246598    0.0805763049796435  -0.12790686647121413   0.05859848090959131   -0.3508900221184215
 0.009342415179285085  -0.01226019887212868  -0.01701923556072909   0.06213629213200493  -0.09802955311681154  0.054961163147449726   -0.3498926756059769
0.0019315978070250511  0.017878611093769446 -0.013243061090186909  0.040212227222451824  -0.06936843058625972   0.05170713171064053   -0.3487251022646993
-0.005273908836567906  0.024448413846522323 -0.009313431915159756   0.02272703181377244  -0.04310341657967024   0.04881364744676118   -0.3474618924207199
-0.001274212055437655  -0.00469375307131261 -0.004281036014796687  0.011493800612209604 -0.019522755368764154   0.04597799830638509   -0.3461141883729964
-0.006417924617493034  -0.02435629702710197 -0.000269106396633013  0.005985649762691645  0.003297919568313783  0.042233801901262864  -0.34482429312308976
 0.017390627338328926 -0.013269576819221057 0.0014702060344852913  0.005949479194563364  0.027895159907064024   0.03763225120823922  -0.34359882381546886
 -0.01884044414867414  0.007889215132671996 0.0035172727676369246   0.00951022409970078  0.056164588180328094  0.033195504560160724   -0.3422308285733195
 0.018623980017664365   0.01730671131981459  0.006494558366908574   0.01538980266006005   0.08788973903640501  0.027453846076925893   -0.3409932592553465
-0.014234036956641997   0.00877821164799248   0.00824386529063793  0.023475990742913386   0.11863573300206327  0.020260296625569402  -0.34008870396282376
-0.006314784481059875  -0.00834280301335276  0.010573221362897917    0.0338562790412517    0.1440216955480593  0.012245606333732898  -0.33957354108627263
  0.03169408969878125 -0.013120598269370589   0.01061432781437378   0.04420651126567324   0.16187230184278367  0.003120566768278512   -0.3395775707647917
-0.022241081940949828   -0.0016250423981509  0.007189896007061776   0.05294705881191664   0.17176705111536944 -0.006271832248675092  -0.33999157779678846
-0.011820634235496686  0.005985123261625015  0.005955601842085344   0.05922743737051589   0.17509040454811683 -0.015269533172247333   -0.3406424641792257
 0.017794211633395306  0.004816581477209623    0.0048833862153198  0.062304090387284586   0.17338283824240433 -0.024111078205980775  -0.34149922862159005
-0.003517385439728841 0.0006835610569351485  0.004865266161293413  0.061677348609253876   0.16741319454289028 -0.033026389817069256   -0.3425841517404363
0.0020415625434470064  -0.00263302899504923  0.005778038579135496   0.05720242282757444    0.1579136225247859  -0.04161002932560741  -0.34377552167037273
-0.003170110446285805  0.007899026956626374  0.002417925532428568   0.04971718128397712   0.14729491398604427  -0.04998593279579121  -0.34501510397608476
-0.003761666913209019  0.010855904663793773 -0.002538986217036476   0.03819076762412131    0.1376210791995311  -0.05821945443767628  -0.34627471987451913
0.0005985360283127118 -0.013602031116708444   -0.0059359120981517   0.02198181020707645   0.12948417968029213  -0.06589897776411155   -0.3474734619729984
 0.004781603417545757 -0.018804017447643116 -0.006160880271970585 0.0025362081959338393   0.12291677274014655  -0.07318584832845701   -0.3486536208047906
 0.007140849634241206  0.005709887789852788 -0.002105769886146455 -0.019153846324600383   0.11649396827651762  -0.07974227134140265  -0.34983253106711676
-0.014115350435202598  0.011897273611083036 0.0027822159550749195 -0.041507328879005934   0.10845915718938527  -0.08524439995261227   -0.3510270909068646
 0.007201054509604435 -0.001114142235823373  0.004996071907210586 -0.061835324478664355   0.09781748610674597   -0.0900008733173937  -0.35231415256898757
-0.004041436053080475 -0.008471323149807825  0.004052369821165518  -0.07879687770642223   0.08450436970372052  -0.09336140661886308  -0.35361453836766227
 0.006025917138328538  -0.00627529617776782 0.0011786009777976017  -0.09266537898990884   0.06967129752183002  -0.09519492492723665  -0.35482679461357347
-0.006390747373719952   0.00567079314602211 0.0015060718245208382   -0.1021533939431335    0.0543431084572112   -0.0958554431019158   -0.3559002043640567
 0.001861895164240266  0.014911492417888748  0.004336842428931731  -0.10585858722863879   0.03905032986575224  -0.09535004718662711   -0.3567765083291904
 0.004880299137896234  0.005874117688425266  0.006841772411974745  -0.10423345010884982  0.023872107692951904  -0.09398197022998839   -0.3574573784647938
-0.014129549053578072 -0.007841899793104547  0.010343761926135505  -0.09716426830015128  0.008814082517486017  -0.09212138886782525   -0.3579919688624459
 0.012345006266203565 -0.007315467840584703  0.006887707480782887  -0.08565072108327416 -0.006129994673124266  -0.08968079612495658  -0.35836448731492104
-0.000300620151018642 -0.000954584823201219 -0.000108223964548047  -0.07160548063081203 -0.021096361406722483  -0.08637506541653951  -0.35852577494536125
 0.006734221712840053 -0.002002548680406014 -0.004699769219710763 -0.055863258156480196  -0.03594863552338137  -0.08271287781245638   -0.3585669553832607
-0.000091935582668352 -0.004553478511952234 -0.011710009427216957  -0.03897514072906623 -0.051513676462074054   -0.0788912948858577  -0.35856738589598497
 -0.01800270845447573 -0.002572764879124816 -0.012707900422465127 -0.021922854081239385  -0.06806135856337464  -0.07484855674098125  -0.35855522726493966
0.0000759264853346202 -0.000688061374730443 -0.009470381191798563 -0.006201719900304237  -0.08441893062314779  -0.07068509840184146  -0.35855086695152105
-0.004793511019032111  0.005249609719174937 -0.007957582091191075  0.007758314032310659  -0.10011389064492017    -0.066216915878305   -0.3585181163104475
  0.03366934881046761  0.017684738597675262 -0.002764112999258501  0.019700390301576526  -0.11456060126733919 -0.061195433756044706   -0.3583542416957719
-0.001071749629277471  0.020179025417563036  0.001942295085009902   0.02965438990170452  -0.12701490142881297   -0.0558275844709874  -0.35804316706021894
  -0.0426554404749222 0.0011593956951699413  0.005036806747687549  0.037168470859888586   -0.1373425342031513 -0.050550387589807885   -0.3576465957736821
 0.025118531060355366  -0.02752709447627731  0.008472728810595251  0.041520352618321335   -0.1453283545522453  -0.04493180695372104  -0.35705014940169416
  0.02420083049645289 -0.038131597591148876  0.008445124900355965   0.04340428609548982   -0.1501632562330797   -0.0387233703196603   -0.3562503485495416
 -0.06429845902193847 -0.011981740585609212  0.004327747919839638  0.043027412142189636  -0.15111412652604206  -0.03188562883891946   -0.3552933808245403
  0.04073277488825082   0.03512032783408317 -0.001364802444457514   0.04182501895555667  -0.14791615382750067 -0.024235344278860253  -0.35415945982434843
 0.009134691563237382  0.046974489600512585 -0.007063368760139297   0.04020080824732056  -0.14034761250819625 -0.016055311221462212   -0.3529227232017666
-0.008246846840756814 -0.004508446013711771 -0.010254447606771393   0.03698449547595428  -0.12884075030971703  -0.00762291280476415   -0.3516517784527956
 0.012454134545103104  -0.04036158213533901 -0.008113513346301459  0.032477250504579835  -0.11374253749334816  0.001083271539893571  -0.35036415212190813
-0.004264479746017445 -0.016743896036551686 -0.002110585759021696  0.028220514425750534  -0.09484776601331313  0.010092629004001128  -0.34907317493354506
 -0.03877650900049222 -0.011324961766963508  0.007338824097113202  0.025358785120464286  -0.07264002591708182   0.01930814947811507  -0.34781358290767284
 0.019052913513842668  -0.01448376500573111   0.01684205906136231  0.023286024568330194 -0.047436936295615864  0.028614250712082578  -0.34654915610810166
 0.021273859182396257  0.032360430091397406  0.020929432478970746  0.022196546352801855   -0.0203214860623805   0.03776766594149006   -0.3452485052795329
-0.006620129604257893  0.057761741779037694  0.016569490490391553  0.020446099395389987  0.006420265576521141  0.046453245855068624  -0.34393924414815225
-0.003102498191743882  0.024699860863775184  0.001835497116400889    0.0177053274024595   0.03214741278850473   0.05459914543593199  -0.34261132801981997
-0.003994532268151604 -0.016084533654378043 -0.016019045875969227  0.016029319203050604   0.05684233329361368   0.06203560741279619   -0.3413134921227071
 0.003034054202691627  -0.05233818168108117 -0.029478253142137045   0.01454879807135842   0.08026758117002553   0.06862290655137068   -0.3400565656131083
-0.003972219130825561 -0.049685829931555466 -0.030257424366152235  0.012188830975881883   0.10259417374647967   0.07447302633260794    -0.338772519307065
-0.008085969083239745  0.012542718022193027 -0.017537141398843697  0.008854101881976068   0.12358581615231573   0.07925412395936055   -0.3375432788469407
 0.017173327075112235   0.05149345476329908  -0.00595246173880019  0.004754652286572188    0.1421505966655878   0.08299031942063298  -0.33645018530910775
 0.003705173846878542   0.02491749309574395 0.0010883234055034628 -0.000252157665708935    0.1576151451874981   0.08597651978878691  -0.33554315775497834
 -0.01798284624456617 -0.009883294447265463 -0.002491854676883589 -0.004541776630584516   0.16989878901547112   0.08828341322502208    -0.334894454025495
-0.005057181131465515  -0.01905339814059861 -0.014500981415937267 -0.007724582960321431   0.17856576651346523   0.09009410264681306  -0.33447417279453223
 0.018495177285847805 -0.016951694712137325 -0.010701482165776521 -0.011167386182878717   0.18358840620179942   0.09145744503073747   -0.3341866909059189
0.0002447082973661245  -0.01193891423227659  0.006370225902310218  -0.01321338552442906   0.18477464441934766   0.09222321629581674  -0.33397257937895414
  0.04892033208191647 0.0033456119724582876  0.030043711402387818 -0.013711533287429672   0.18135898968198244   0.09222124391354361   -0.3337956684588225
-0.050280840801315334  0.017720216132407436     0.055328940203378  -0.01393724708987267   0.17337161049364394   0.09154105324221525   -0.3335975826776851
 -0.04840484975896109  0.008486290037063322  0.053764552346594684  -0.01346565783285119   0.16112956557958913   0.09031919473837968   -0.3334009084882522
 -0.05947379440853841 0.0015373639398006435  0.027394046372775593 -0.012090557968817625   0.14552137736275247   0.08866193674975623   -0.3332053387358451
 0.030276756953482985    0.0281886906739293 -0.003100823250042399 -0.010438681376226784   0.12823599364799948   0.08666976362213988   -0.3329189238607262
  0.11839594761230629   0.05163035441993024  -0.02939060743680473 -0.008634639400462036   0.10962488752874554   0.08430106423129831   -0.3325311879644342
  0.12528321571375056  0.017561994990374676  -0.03169972068974991 -0.006669619177795216   0.08942042401063154   0.08172902638829374   -0.3320464547873977
 -0.05458977632451637  -0.09360306746574469  -0.01008450175058888 -0.006234412029950235   0.06774759726216861   0.07923436537245207   -0.3315061763252936
 -0.22618000017958326  -0.22506134536510392  0.010276617073952884 -0.007103727748031948   0.04463586917736501   0.07702781132374625  -0.33102552036884597
  0.08471064410052384  -0.22181659183113744  0.019395295679989974 -0.007072399218670195   0.02037980234302966   0.07517115372610876  -0.33053847514135604
-0.010150442592121525  0.013077381121692773   0.01341874163253841 -0.006354292792582789 -0.004196903374254465   0.07289014821258168  -0.32978864126252216
  0.01689197821873692    0.3612872324982749 -0.005513710848026655 -0.005876672878932233 -0.028767437775417404   0.06933980671966432  -0.32856271975465634
 0.037357280223204864    0.5347701041815015  -0.01969840716453035 -0.006487376108265276 -0.053424333027138726   0.06417872127795556   -0.3267509723738752
-0.018184046158929046    0.2786145259441821 -0.023886724221807626  -0.00835222193250167  -0.07759468917812042   0.05732248432281746   -0.3243573344373005
-0.037840661490461926   -0.2522322508472217 -0.024020107496225837 -0.010994524653715185  -0.10068776759193292  0.049031309311207485  -0.32150245420395346
  0.04672223529799753    -0.505518825244555  -0.01971930923533735  -0.01300742930978331  -0.12205951921404024  0.039604110090149566   -0.3182801871227769
 0.008526561117390398   -0.3009108423529592 -0.018543040435136757 -0.013488737798827963  -0.14058794852439002  0.029173214470778478  -0.31470961310923495
 0.005234663450317277 -0.019906059708353904 -0.027119566991608723 -0.014792697537329941   -0.1556718291011953  0.017817543492117855  -0.31085849695712636
 -0.03761141974266603   0.10422026544979496 -0.048445777982848756 -0.017649321436412135    -0.167240728247153  0.006020367872762144   -0.3068490761374954
0.0026492326255549772   0.10955470151023428  -0.09198574425591279 -0.019691006079881408   -0.1753396558664245 -0.005653661323374606   -0.3027933721742209
 0.020062508200937378  0.044548096232949454   -0.1368780184674023  -0.01946478506198617  -0.18032717544393617 -0.016863493366522923   -0.2987840616431411
 0.007474989907911581  0.019604503590763808   -0.1307921173226248 -0.016613404891576835  -0.18216544148351468 -0.027409939694872876   -0.2948373459927178
-0.010475131364279754   0.06784558021442999 -0.027427141983994957 -0.009707242932259821  -0.18042126459648292 -0.037408844920411355   -0.2908923832677547
 -0.04402654902554284   0.06713287792134165   0.18262528886413826 0.0000232993591140606  -0.17507583062308088  -0.04697773156881767  -0.28688601539979813
 0.051344412171371485 -0.006893962654274194    0.4298461129162356  0.009554609468093762  -0.16644939831712258  -0.05614064179958401   -0.2827726754656686
-0.001525130824596922  -0.05128052975481239    0.5706534844725937   0.01989882844206869  -0.15492013855415265  -0.06484009786326383   -0.2785706045947649
 -0.02542008028703214  -0.02379641484294757   0.48917813398725246  0.031011819914748613  -0.14089361878003842  -0.07299403771234442  -0.27438625001856537
 0.032819858658391314  0.014829723757730812    0.1879490334172561  0.039402148691227296  -0.12456687531829669  -0.08059870486722803  -0.27030932005568303
 -0.01130034374481749 -0.001699103030451961   -0.2268595757889257   0.04499687160940258  -0.10590511318330947   -0.0876560740844635  -0.26638604551747325
0.0014345554914130245 -0.044144018286698464   -0.5635978323607209  0.048081347346928684  -0.08535685264981321  -0.09416695227406394   -0.2626432363706964
-0.047187686758754614 -0.024986498110856438    -0.669301327121776   0.04502035789455882  -0.06367183519058446  -0.09999618326567665  -0.25908622727759306
 0.024898539720235816  0.035406267767105495   -0.5509013767073535   0.03613988112070774 -0.041466337050716326  -0.10497036933297399  -0.25573942119417015
 0.029741341146871048   0.04253928862729675   -0.2866141066383222  0.024599900390919305  -0.01960031131864745   -0.1089429885724708   -0.2526515550591628
0.0046926642678963015  0.014074724284769038  -0.00482232219624151   0.01106992063500653 0.0012335787103185183  -0.11186091755886736   -0.2498238271636931
-0.003262403426449059 0.0012555443160676121   0.18078154761302834 -0.001824998354450774  0.020758407162805227  -0.11404336379408696  -0.24718550194436972
 -0.07947654309723376  -0.02861732899994223   0.26837181139657285 -0.010310564274907893   0.03864617213446302  -0.11585515468957372  -0.24468154450799637
  0.08156480432179182  -0.06883306733986791   0.27494582737580303 -0.017063004789658557  0.054516584372964846  -0.11744956982870529   -0.2423001862431447
 0.044448011559896514 -0.044075976741803136   0.22506824025163757  -0.02602662883993967   0.06813135830232699  -0.11885773775366232  -0.24005085659130995
 -0.08564710790145783   0.04031452085504552   0.15714402196420676  -0.03636929467135098   0.07911502779882751   -0.1202398793352349   -0.2379890316636842
  0.01613440170286924   0.08674414200018661   0.07892910727794814  -0.04666828972127048    0.0872063331134185  -0.12182051281322581  -0.23613250900146368
 -0.01140370041832836   0.03993570662181429 0.0030643633847779322 -0.054294624848451434   0.09277673180791486  -0.12383752721781714   -0.2344441822131098
 0.002486987612649663 -0.036443634176695425 -0.050803197451101414  -0.05472358675591287   0.09621684260095108  -0.12630949050086457  -0.23295369304092478
-0.001555551594783267 -0.014975606981665173   -0.0722046949826049 -0.048094272999124464   0.09751587107742037  -0.12807822882087033   -0.2317165552631739
 0.009284028689277822   0.07105436291717766  -0.06524299089789011  -0.03892248954307634   0.09678954857085988  -0.12789923365969758  -0.23078274479344457
  0.03024942230308157   0.03240588352747188  -0.03957218141956022 -0.024163592581417252   0.09404930116660483  -0.12523314546155676  -0.23018638380023715
0.0003916864696277608  -0.09589875855318597 -0.008140098113678239  0.004107999637199102   0.08945291429899895  -0.11993909507424069  -0.22990268240379053
 -0.03065033309782167  -0.12073929977959572  0.004755933109844623   0.05065486544760023   0.08352451348306686  -0.11245766976312269   -0.2298565071012961
 0.010122648793409673  -0.05609154271329386 -0.000692322453467946   0.11236938196137816   0.07657795951760372  -0.10332584651991265  -0.22998340411452434
-0.025447057444813192  0.005263301666497399 -0.015164190720646578   0.17528702028639834   0.06873099129940805  -0.09278042779725476  -0.23024846214960376
 0.024194504397236992  0.062356347272458666  -0.02697117702949442   0.21837748387560685   0.06014356091592578  -0.08102337834341249  -0.23061267419742484
 0.010368232564777126   0.10285018101594351  -0.01605796388662898   0.23000561591775112    0.0510755300270177  -0.06869665087814411  -0.23106642665250504
-0.007880574426257909   0.08267564377698919  0.016892085799679782   0.21606295175379142   0.04162474973897705 -0.056441161896518696  -0.23159011016499695
-0.016909107453680957   0.00499834668562775   0.05842858746643612   0.17846140973089156   0.03222739762199135  -0.04464170076551262   -0.2321365515224162
 0.013371985557354407 -0.059919228095735855   0.08369478933378072   0.11289938543061818  0.023159862311623633  -0.03350654967444835  -0.23268536867293346
 0.011223855272908222  -0.06245767527201046   0.08347818220616716  0.015973419469503838  0.014408737823895396  -0.02279161542500189   -0.2332184879315206
-0.016978729322871533  -0.02001511034613721   0.05324549830404937  -0.10848531469473566  0.006382476063347648 -0.012220934158800548  -0.23374936469864485
-0.015485098221884517  0.026728888171988423 -0.008455775585242992  -0.23867620974184486 -0.000958442476213902 -0.001684053031084393   -0.2343250751965971
  0.03493505971248422   0.03193614183823992  -0.07345318207852194   -0.3391566612198359  -0.00773868464667438  0.008805321505698429  -0.23492888696635522
-0.005622096942268007 -0.003963994633543646  -0.13755408149380421  -0.38843495239859566 -0.013646413314097099  0.018912207795661412  -0.23547198224635937
 -0.01715681679219557 -0.018941777990062712  -0.17805372894848145  -0.39217107798155243  -0.01874092464552454  0.028286586199791623  -0.23586012078494742
 0.016144357388780645 0.0002137935776499716  -0.16023369800808504  -0.35817968205824163  -0.02321984115231908   0.03672166948655173  -0.23602520427526993
 0.001463340654352864 0.0007653458574919791  -0.09537437176830901   -0.2919952798721072 -0.027109792876617706   0.04414294039924063  -0.23597368416747913
 -0.02935436774560817 -0.014996186057239728  0.010246991159753822  -0.19770267645756656  -0.03047918338904708   0.05052051217887034  -0.23578579111092166
 0.007886986085427792  0.005121333611959322   0.11778070532348987  -0.07828680957389389 -0.033302727976902424   0.05580646845297749  -0.23551112220409867
 0.020273229938136413   0.03445160314983499   0.17333574104000396   0.04794623499391738  -0.03506344236420711   0.05993369697343173  -0.23514845795182038
0.0020653369180583664  0.015977035391935245   0.16937537358183152   0.14988745622021743 -0.035543169915257494   0.06295550389367387  -0.23470142237240968
 -0.01086082304186568 -0.012975771817128402   0.11182038053062318    0.2109483074853905   -0.0350991321516277   0.06531733207453037  -0.23415878486049413
 0.008739909490492234  -0.01710717053818996   0.03593729276714027   0.23478191772543336  -0.03346653437290053   0.06756826207121835  -0.23356784495469918
 -0.03986936311306612  -0.02916505524290166  -0.01745476301511959   0.22974373304117326 -0.030784747845821855   0.07008588600161261  -0.23304418789031014
 0.037153759670215405  -0.03092991467951641  -0.03949604103265446   0.20630925472623363  -0.02707478331018286   0.07295364292337954  -0.23262493780334131
 0.010525798043803485  0.012765928667623532   -0.0338910016505862   0.17036870994681536 -0.021648697332219503   0.07618517231205929  -0.23229034323367864
-0.037229560724580106   0.04417761375789784 -0.019733782143644744   0.12329996851135848 -0.014923831634647495   0.07984304922654818   -0.2320083897322164
  0.03563561867720013    0.0195505709872086 -0.011542358634047262   0.07463390707188408 -0.007558401206928592   0.08404064646204906   -0.2317269599008354
 0.008299515751320836 -0.020800773791955135 -0.009075353512247534   0.03869384175618002 -0.000044850576419116   0.08871221816029336  -0.23146514563370607
 -0.03326310968994117 -0.040909574867382115 -0.008585715205029156  0.018901955741800654  0.006995962971089259   0.09300673166989551   -0.2314024809790774
-0.005267403542850798 -0.017758967432024632 -0.002196499383465987  0.012116092426514073  0.013632936782400684   0.09598904811130989  -0.23168870928773347
0.0023545168508874205  0.032103948573663596  0.007067062168277693  0.012036809654181243  0.020290967830126665    0.0971898962652624   -0.2323698104962242
 0.011509778849373466    0.0385274283035834  0.011621583166637684  0.010161035303156858  0.026669396778307063    0.0965186992140244   -0.2334499118847176
  0.02661997282666395  0.017108623438893623  0.006995899888453473  0.006261540079712514   0.03199735963236617   0.09434466125103749   -0.2348581476556523
-0.012774837485076334  0.014146062705660836 -0.011909834056234574 0.0001544373048371628   0.03601986980841934   0.09113359523769633  -0.23654055929716167
-0.036823268029637854  -0.01700627572451408 -0.036507411441147344  -0.01296783889333376   0.03869950887913369   0.08711649482943508  -0.23851199717461544
  0.03645513392701103  -0.06254968811142164  -0.05300322245137599 -0.035034855843917204   0.04111125148643384   0.08247631543260273  -0.24077634549171403
-0.017535330846674406  -0.04245970106875031   -0.0551515926676753  -0.06187787580558049  0.044696179399145664   0.07764061463520125   -0.2432687777381999
 0.006036067468928496   0.02357608468881621  -0.04126838436494013   -0.0882440437958678   0.04896745359912366   0.07296497517421217  -0.24589783658260195
-0.007031726450775852   0.06626139264010225 -0.018033286746114582  -0.10652249870620382   0.05329942217928789   0.06865696641239522  -0.24858160462009968
 0.014137653207196347   0.04586250436755269 0.0002934859478494201  -0.10979323491919366   0.05676162617942831   0.06484119253967742  -0.25128872910963745
-0.000261352192402059 -0.019576219038037298  0.005747412965478621  -0.10145671547256016    0.0576995616466834   0.06133856331614164  -0.25405765500692834
 -0.02649889275963438  -0.04626837518630212  0.007977681930191525  -0.08247916703399996  0.056401037521735774   0.05791165992540287  -0.25692591702990475
 0.036548550876423946 -0.016666431776618567  0.012255659443136287  -0.05012771439470229   0.05385137169814969   0.05442557198833624  -0.25990571104944504
-0.033779406139451296  0.001743444799349507   0.02122738626537584 -0.006773942612406641   0.05056848708946987   0.05090683021605737  -0.26297491144155444
 0.020163813461299633 0.0004016187776061386  0.039889908815281455  0.043020297698907105   0.04709583155555324   0.04769133170054219  -0.26605661002913994
  0.03177709714835305  0.009764144029253522  0.046028840015634266   0.09272208813037901   0.04320385550920455  0.045197274395588245  -0.26910313566650124
 -0.05917150016755598   0.01041769215609243   0.03029146512861575   0.13295642627989787  0.038750957117104565  0.043715714421983465   -0.2721099100121322
 0.032141981348638854 -0.006410394574521522  0.006113948815122304   0.15689356791595863   0.03517545563893075   0.04327897814784827  -0.27505929745941166
-0.008239928842118202 -0.004604344511321785 -0.023035888266780928   0.16600874705260418   0.03448382636086463  0.043750456425076814  -0.27792976369910466
 -0.03545632637966338  0.011909620335878652  -0.03471654537781635   0.16234089263926912  0.036827368910508695  0.044994856058774624  -0.28067721838359455
  0.02590028748864233  0.022283704829997628 -0.016407532418803154   0.14589890772188088   0.04034576780989597   0.04690478267347761   -0.2832233157613457
 0.042429071892999604  0.027503276811323897    0.0088719402912843   0.11857579029415509  0.040833566037579296   0.04927280809535894  -0.28551613676194426
0.0019954276486375544 -0.003907554397348779   0.02814374155004778   0.08255541635062628   0.03459415067899992  0.051739292186685173  -0.28758198369607235
  -0.0662214695024618  -0.05127903309720127   0.03107891111807684   0.04212523610728302   0.02226412842818818     0.053800620959602  -0.28944291490657115
 0.013215303924976343  -0.05076810640007891  0.009396205667751054 0.0031016150853490562  0.005528755512571192   0.05494592101525781   -0.2910931113025922
 0.028837732321801535 -0.029420528407353826  -0.01464417064237541 -0.030231261701896703  -0.01340921136440551   0.05506210219678626    -0.292530336385357
 -0.00969800915707279  0.005775692631379307 -0.025353437225178833  -0.05685861645608691 -0.031891526161667114    0.0541894182272835  -0.29371840514393166
 0.010467205372815713   0.07763669950608373 -0.022382479225816244  -0.07944175261385396  -0.04989389053337493   0.05239887668038054   -0.2946546717115778
-0.016283873854861314   0.08757890431330408 -0.005795203383219517  -0.09938172669409182  -0.06758764107723504   0.04978174126471944   -0.2953891436621862
-0.020927208070268915 -0.016661550711704578  0.011009359152425874  -0.11504291455172132  -0.08399080602443941   0.04640071368724513   -0.2959513117252396
  0.03429596634015837  -0.08869964882070877   0.02244502459841681   -0.1256341749786134   -0.0985792095586469   0.04250359439378407   -0.2963032945265536
 0.014560377403543049 -0.036829384002827016   0.02609747996063469  -0.13160165323450332  -0.11083177934012284  0.038415516500031235  -0.29638337713845686
 0.006420137655177686   0.03024893149753345   0.02584119092715743  -0.13236319496045287  -0.12127014517220268   0.03436833411567845   -0.2961541150367282
 -0.07518250729518641  0.029068798601728146  0.023153437860433418  -0.12851654681748398  -0.13250877589588797  0.030422186816226267  -0.29562246362053485
   0.0440006419838266 -0.002454130907192579 0.0037260542639215317   -0.1212979765470759  -0.14748272949409713   0.02648982802508841  -0.29485875633198255
 0.005239111103894113  -0.01895845392178109 -0.022452465921562446  -0.10714507200364162  -0.16591513175371678  0.022401235665200515   -0.2939271967912317
-0.002822032336123503  0.007080895559651702 -0.051999580163489184  -0.08505654065539697  -0.18428493591485717  0.018071802050491716   -0.2928527590600254
-0.006911725539392045    0.0545148697402397   -0.0744714056710022  -0.05903213278917896  -0.19650255577267253  0.013496078876704853  -0.29162860794908785
  0.01642570014893044   0.03600692930823866  -0.06087260676864744 -0.030721788368294402  -0.19745858196193825  0.008587995218924449   -0.2902478839014112
 -0.01197499289147098  -0.05348721907480182 -0.023226528043867697 -0.002296374690171404   -0.1880024377223363 0.0033760588419713584  -0.28875603713369064
 0.007313331319972986  -0.08572841261515962   0.02249013952389536  0.022410598634915433  -0.17048556345130575 -0.002074725295011619  -0.28721782984359556
 0.005583084693851466 -0.016881691165810318  0.057122900132213605   0.04318254990007781  -0.14749510629481774  -0.00777771255714195   -0.2856886368981266
 -0.03062100544352283  0.037919976682391804   0.05745751693865826  0.061045410499397275  -0.12187673670654331 -0.013644698397883041   -0.2842114311890227
  0.01064541360778605   0.03085406133909098   0.03296992281164281   0.07225211935133552  -0.09382390034447272 -0.019571746923174604  -0.28277358577910944
   0.0286490154720785  0.021668012910437823 0.0023241852200248415   0.07646919142222744  -0.06414218100001505 -0.025523361910876237  -0.28133471845458363
 -0.03544160699581066  0.017305653068489846  -0.01430978499122853   0.07575820654030946  -0.03532880991881581  -0.03151947964848881  -0.27989186547903167
 0.005993739786093825 0.0016994163260675103 -0.011155216828021782   0.06937789679016204  -0.00909879540213979  -0.03764725550845341   -0.2785006435365594
 0.020148276135752506 -0.012384093039348712 0.0054090245823842364   0.06079961235906012  0.013950079382148869 -0.044099917543244875  -0.27723231558652767
-0.000398551526747359 -0.031021847476115902  0.024983429700048417  0.053154749241219566   0.03463272461852082  -0.05102454793427853   -0.2761195033417304
-0.009179105132626828  -0.03466359188963373   0.03149047492908794   0.04558486382609862  0.055388764760002346  -0.05837276529946307   -0.2751213476929396
0.0007686607729210607 0.0000441368267781227  0.024148400872372137   0.03754987084739465   0.07910207021006757  -0.06600581312946867  -0.27415783862771853
-0.008968453048955353  0.017631924545414214  0.002289489195363226   0.03048777038579075   0.10520266771977514  -0.07374626382799628   -0.2732284446688401
 0.008379060564469968  0.003263087201955993 -0.027472262973740995   0.02344867243100725   0.13043080147844244  -0.08140584304472534   -0.2724340278936728
-0.005433522725018174  0.017613569479622563  -0.05012666643913909   0.01720885583645736   0.15059256589001974  -0.08875450006578452  -0.27193105887740426
 0.005124727961780235   0.03916300249435603  -0.05693422189343392  0.014282969898368022    0.1619564499686168  -0.09561617325316155  -0.27182301817875715
 0.006754875591021358   0.01605829919880941 -0.038491974239502395  0.010697532191333924   0.16564337187750922  -0.10172284630819332  -0.27205740288953484
-0.019016844387550053 -0.019021764950231328 -0.004901232107979052   0.00581146595804977    0.1640880075454815  -0.10672619540739588  -0.27252149490663524
 0.019366721328671878 -0.028786438971952214  0.025433609747039725 0.0005135216207115129   0.15919186538015012    -0.110551011555177  -0.27314551208108206
-0.012379639242929594 -0.019558588393003527   0.04020934486109483 -0.007318843706034292    0.1527470267402173   -0.1132232413583367   -0.2738933309462993
 0.009437245544364923 -0.004574735090646881   0.02928019932110976 -0.016352697702728177   0.14465322763522712  -0.11483624913916468   -0.2747526166597437
 0.003785669658151557  0.008093539662167503 0.0004758421344728076 -0.023950745559035987   0.13540012683445138  -0.11549670243828203  -0.27569416752589093
-0.029574130201832603  0.011742991369234077 -0.026178693723138136  -0.03065327340386921    0.1267343482861699  -0.11521712862116315  -0.27662469743643425
 0.021354179838486975  0.004157866946606904  -0.03933606438396666 -0.036618086054461846   0.12010589459925779  -0.11394897933276044  -0.27743471753000887
-0.002868411198358657 -0.001101768934666855   -0.0344465304400009  -0.03848719625704941   0.11573868412451009  -0.11168064640970982   -0.2780876481052269
 0.008608476319968614 0.0019978775903885804 -0.008602200368650548 -0.038650025305069155   0.11286578991746626  -0.10849763029113309   -0.2786025755643491
 0.023168014788286326 0.0013604273502657999  0.023741480684934067  -0.03770656982139645   0.11016897961628405  -0.10444657209977856    -0.279020626284076
 0.014592918024866099 -0.007385066964742585  0.048221120307355925  -0.03011998875155853   0.10555874417253744  -0.09957831855826473  -0.27939158961431587
 -0.06103560215338658  -0.01736039546740966   0.06153730632067669 -0.017136780806269538   0.09932910803635214  -0.09392202277886216   -0.2797022353622285
 -0.09970199990912655 -0.003180745762804099   0.05217811091099864 -0.002225085877813195   0.09318335420169357    -0.087579833819145  -0.27988207286096944
 -0.00809861310939476   0.03990975782134223  0.024329283421608422  0.013096830807498211   0.08790563104369753   -0.0807559227007522   -0.2798619033417792
  0.18477449313438213   0.06163775636321727 -0.004926570204923694   0.02481479563080556   0.08438909620627087  -0.07357585916602666    -0.279604110428424
  0.11630606584457218  0.031261840457936715 -0.029174623256993368   0.03061425027279318   0.08146103129465095   -0.0662219539889074   -0.2791348870068424
-0.060053323764175916 -0.050446608431888376  -0.03663777989830776  0.034946424274152274   0.07696754460952046  -0.05881451944104252  -0.27850568248584784
 -0.20143734183840412   -0.1813342769816496 -0.025796984462354018   0.03912388164529614   0.06963340001290874 -0.051338091999385015    -0.277732578610591
 0.044967629568632456   -0.2632665187358839 -0.010525846840530548   0.03678300058947097   0.05892770793327141  -0.04382470632334629  -0.27681011230756947
  0.00772994866106657  -0.10170007360732124  0.003988496929341275  0.026846713044467247  0.045249813751824436 -0.036299770064893794   -0.2757396000272736
 0.014949815999373652   0.31099862025719055   0.00925439464530868  0.012822503825544054  0.029070770378781727 -0.028729235597210207  -0.27454099642874896
 0.006082213277922799     0.596497239245822 0.0036347829106861793 -0.003113103517233547  0.010895731418713913 -0.021085211321943558   -0.2732713820954939
 0.019544219628345218    0.3586483457735009 -0.006624337919485386 -0.015799461643156862 -0.009227706178324736 -0.013436673577510359  -0.27199597679996607
-0.013741697269757408  -0.21613473716828074 -0.021531801952371338 -0.023172578654887838 -0.031101811457113288 -0.005780987197336721   -0.2707224652489756
 0.008437916893754158   -0.5165237351608954 -0.029987650012070054 -0.029610001956347283  -0.05388902017644834 0.0018236842570062278   -0.2694306210929882
 0.006081648598013231  -0.34495018715354975 -0.029027903907620414 -0.037194681240998534  -0.07693961610090683    0.0092203411567838  -0.26812939017474363
 0.003392499047240689 -0.059720219552702083 -0.024298039660308735  -0.04127380192891262  -0.09904784027551962   0.01631678236636363   -0.2668258849511578
 -0.01585143210252872   0.08582750214988523  -0.02488081641983974 -0.039259407773376456  -0.11974254535238193   0.02305533662711958  -0.26556253854190287
 0.005128713291233181   0.12486461247460097  -0.05261746819610862   -0.0341561654105047  -0.13936262894120516  0.029479431771339933  -0.26440708451746814
  -0.0114970179049107   0.10228624309509461  -0.09868227339576885 -0.026408998105387778  -0.15723819866222602   0.03568417365153119  -0.26336000775554747
 0.005845346288872691   0.05586166492788026  -0.11799853829205482  -0.01831059979894414  -0.17269686961200545  0.041765077472472684   -0.2623933323230164
 0.027570904908196456   0.03433090277890678  -0.05374315034465104 -0.011773015506677118  -0.18497934253558224  0.047668918404469185   -0.2615067871535346
 -0.03150422027176016   0.02113798718758371   0.12518012696700037 -0.003490924504582577  -0.19270421185913356  0.053260591417324143   -0.2606954284719729
-0.007574629757965508 -0.009614261037353494    0.3649668622240799    0.0083428255721906   -0.1946956279279859   0.05846725928842515   -0.2599638015666109
  0.04119712673442551  -0.03208926853007294    0.5327766938386368  0.020264971641988996  -0.19066199764510822   0.06328160492169324    -0.259360987693718
 -0.04588331139900313  -0.02803222514547231    0.4971231081338862   0.02933015368120925  -0.18090915378522546   0.06773672774144185   -0.2588957855710226
 0.010366097454284923 -0.005538943044627641   0.22597869174522178  0.036983084750925356  -0.16615569016383924   0.07171561319654549   -0.2585435251367851
 0.018987033839856685  0.020655649539133125  -0.18353682597538776  0.041474245163110095  -0.14820986655717341   0.07502023927680732  -0.25829730016085967
 0.009902366471496985   0.01198019427339063   -0.5413228404886842    0.0425075671589016   -0.1283328323437956   0.07749778239619276   -0.2581593245476623
 -0.02485757365700973  -0.02138129507009206    -0.680571959111246   0.04171126129398851  -0.10665834848002614    0.0790846911147659   -0.2581519020308742
-0.005690533268440504  -0.01730179907060551   -0.5717790514549708  0.036555089145280384  -0.08385527663095081   0.07987875179497406   -0.2583079054475553
 0.013273333315700894 -0.001660214768570629    -0.297125095605081  0.025846033506547936  -0.06039361013112987   0.07995489701154293   -0.2586230708888482
-0.001514547140286023 -0.008648487304992361 0.0012773077813642165   0.01258159808237331 -0.036912745408942904   0.07932172265931978  -0.25906179329191453
 0.010512176021982452  0.012165027946829585   0.20399290975110032 0.0000530975451144972  -0.01454278544191778   0.07798792974201216   -0.2596057169774312
-0.002361018151007884   0.04130791099614787    0.2851583771193658 -0.010763800281799832  0.006372000105971151   0.07610388583896582   -0.2602642191133694
 -0.04679115264697851  0.011733096613101677    0.2709741368145025 -0.017911908952584252   0.02563722725687776   0.07396649360676749  -0.26111431424871606
  0.05044395384125905 -0.031935782727810516     0.206979593291522 -0.023153195576465876   0.04286639324895656   0.07174546422156607   -0.2622304171594382
  0.01064866749203694  -0.02362133189230213   0.13185012317965705  -0.03063396153192262   0.05783008513131957    0.0695610721219409   -0.2635921091567814
 -0.04645184015868617  0.007059864693925888  0.062400198863893745 -0.038872496126144726   0.07019079614844627   0.06738532471104326   -0.2651593090305405
  0.03254520600664709  0.016771020479904666  0.008567437973348843  -0.04374367537359302   0.07893353028321097   0.06506260853495074  -0.26687476637560265
-0.007707514420515982 -0.001513322165693834 -0.029350381404212776 -0.041554253199488835   0.08332515770486108   0.06253218781138119  -0.26865903646610917
-0.000853690717184202   -0.0328372234279343  -0.04706278044723937  -0.03175969872414029    0.0836651969436807   0.05980672649964744  -0.27051093291117934
 0.010155851298265496 -0.018930141691899036 -0.047424894386248494 -0.017418623102752988   0.08031861396933583   0.05691002198687365   -0.2724514610408286
-0.010355077996857913   0.03263338827292074  -0.04290390417240779 -0.000707966043086729    0.0748506499613541   0.05386465394411728  -0.27445367559446565
-0.022488138417810062  0.027943969165141976 -0.028161366565732968  0.023101074530022945   0.06881990039732493  0.050765418294559383  -0.27647960450690645
 0.020770282023586863 -0.007152737314240794 -0.009090654619044809  0.062147364391747596   0.06201039579130002   0.04761589241108437  -0.27848629811534087
 0.012646177992023833 0.0010847815411626103  0.005250407634622681      0.11606320580658   0.05438890345844117  0.044589673002223496  -0.28046212609079196
-0.000307591397730581   0.01076911664600751  0.018016361867833106   0.17206036354311738   0.04605064061579351  0.042016756427996356   -0.2824756724332707
-0.023072919799741087 -0.002551013007092251   0.01812959025718543    0.2096544730528393  0.037380999603803255  0.040067802118981186  -0.28461922663938605
 0.013180286516210737 -0.017142679158949434  0.005719937487865439     0.216220631653101  0.029431788355754853  0.038680784883125874   -0.2868555323303469
0.0076001381477617345  -0.03250906541622135 -0.009778396623415304   0.19517576940824213  0.022668643440064855  0.037377922322599275  -0.28901744237879584
-0.007839153962845426 -0.018595980404848486 -0.023203033500667918   0.15275134626594425  0.016693956154593986  0.035379970960353606  -0.29085779902604175
 -0.00182497917273342   0.02907559106074689  -0.02915313155433706   0.08870049247786808   0.01101456032106319  0.032144863953002964   -0.2921862005940606
-0.011450641178920985   0.04292497357477648  -0.02944373007138925 -0.002436487299323167 0.0057271556587562165  0.027641021493040197    -0.293029220902482
  0.01620216272038573 0.0063800477500741875 -0.020259017058169893  -0.11983830443547698 0.0006639915297623859  0.021984754228035946  -0.29348087504035336
 0.007972241024796165 -0.016403205571563474 -0.008453134222567684  -0.24412394987034902 -0.003570945658363802  0.015385647750120484   -0.2936166850723257
  -0.0125318119693166 -0.003273056873247643 0.0027333006976886154   -0.3413898302904867 -0.006094806094383063  0.007987754656758944   -0.2934950185896947
 0.000326306986400752 0.0029698697181599234  0.020569785789594425   -0.3883332227191083 -0.007427462362834722 -0.000126863644585555  -0.29314036034107854
-0.004496372819225073 -0.011638769740211176  0.028029281426671035  -0.38709948062211885 -0.007538432210151783  -0.00853349286732704   -0.2926233189348524
 0.012992983948246436 -0.017473399558039705    0.0248485959742177   -0.3483067377559616 -0.007090287401420842   -0.0166433747964262  -0.29209612875369423
-0.007292030264854576 0.0017634898422533999  0.017206835826700517  -0.28113018429792813 -0.007226761249362952 -0.024095402288618194   -0.2916815881653299
-0.009717442168538773  0.024668122571752743 -0.004335972465786449  -0.18946692860437384  -0.00756159614511826  -0.03079718518660091  -0.29139569961809203
 0.015745576003978256  0.018881087812897882 -0.021763913973117128  -0.07498871678558801 -0.007501518624835855 -0.036910537043453255  -0.29119238553764365
-0.010227788500301678 -0.007114984463565777 -0.025019063368719206  0.047637751689391536 -0.006831608076435541 -0.042622407592526376  -0.29097812009155644
 0.010524454418430976 -0.016178037211225915  -0.01920438132804389    0.1498522105587261 -0.005912420657604937  -0.04795338731614955   -0.2906578902351123
-0.011100246392636641 -0.003925473579655329 0.0010926411501365834   0.21199336962049045 -0.005260311693222042 -0.052810981321408615  -0.29024006953496573
-0.007804548910768663  0.001776227011830867  0.024077725790445197   0.23529509821673988 -0.005181115724148758  -0.05719032318530512  -0.28980703630485144
  0.01896664739818123 -0.005941225037417926   0.03632879687087716    0.2283697813610767 -0.005108884543511841  -0.06120542968643951  -0.28944249575167075
-0.009540591124562008 -0.006029717998715262   0.03664255547731839   0.20340257954719726 -0.003913217163747089  -0.06485519878525466  -0.28922466472990715
 0.018660799935696346 0.0023457911376438146  0.024777022161868178    0.1692592473636306 -0.001623451605263556  -0.06817062359484269   -0.2891633971668328
 -0.01649592570276073 0.0019926650286387158  0.008268531233184061   0.12571269689842318 0.0018184805754050959  -0.07102274338612909   -0.2892255776171874
-0.015115265321532352 -0.007316918089507088 -0.004312787949545442   0.07637729912038907  0.006027211187079034  -0.07315117463065755   -0.2894208430545716
 0.015271506680150301 -0.010960504142814236 -0.007278540471812549   0.03339700142980979  0.010189708298528121  -0.07444788879059444  -0.28977634287787335
 0.006593573579122127  0.003520793158536841  -0.00227527000454486  0.003566140807681939   0.01467414330836225   -0.0749252631450732  -0.29028843430555773
-0.003460175564981609  0.023048941512822184  0.004023038752029267 -0.014235343418931736   0.01920847830649045   -0.0747229682086992   -0.2909259866459636
-0.005310263003980767  0.022978768346053426  0.008268636727892253  -0.02191495794672575  0.023614016919792317  -0.07405708211911587  -0.29161165724516125
-0.010656449781730212  -0.00104160617037633  0.004131459390881202 -0.026677424162736423  0.028016121040923183  -0.07312831217520477   -0.2922545625490996
 0.027385744333027554   -0.0293198987311867 -0.006541526238521993  -0.03401257418381483   0.03167863392646507   -0.0719187205757176  -0.29284032610140437
-0.008964059741372113 -0.025448875839122264   -0.0182636774751243  -0.04002635794377538  0.034016768610797596  -0.07063420302333259  -0.29339175597992045
 -0.01333196820439899 0.0076951454771712925  -0.02847590922875102  -0.04259538295259818  0.035520107217589025  -0.06972791110952051  -0.29391044875865996
  0.01535516181847813   0.02033212979334991 -0.031698202238246605  -0.04368969641595595   0.03761820431329155  -0.06942679429320717   -0.2944094293084377
-0.012946104258425191 0.0019914545571066873 -0.030570764529232675  -0.04154662671456393   0.04134247687411274  -0.06968977291567338   -0.2948825567756239
 0.003630542392182493 -0.008856851135804124 -0.025959999837944912  -0.03568271741147016   0.04687288803968581  -0.06987335831939796   -0.2953217007959821
 0.002914822647646741   0.00784295563702284  -0.01955110141957384  -0.02848007031071251  0.053233297627250875  -0.06871973876385713  -0.29580745144655857
-0.002815636543128782  0.020397919697465756  -0.01303815362631593 -0.017421442946227855   0.05859281987934127   -0.0653736560172479  -0.29641746229701965
 0.011073773175436048 0.0018700690168865983 -0.001738004368011424 -0.001631693216843175   0.06218557629822718   -0.0597642640563866   -0.2971568460072219
-0.013995975183210264  -0.01563161898007636  0.009220639558433517  0.013908571741108433   0.06389803358076518  -0.05200186154207796   -0.2980375381538883
 0.005784167244485014 -0.012149809925278345  0.018505665730589756  0.028525496567533063    0.0639846789017241 -0.042423234248868145  -0.29904282834756046
 0.002250901538594176 -0.006667597943796774  0.021899965607357203   0.04259419796036255   0.06298640554945105  -0.03137638494925263  -0.30011396174095806
-0.013344396442589381 0.0003916956726102372  0.013634196500032515   0.05269733500523824   0.06070914716303803  -0.01906519215988778  -0.30122643741870236
 0.012646734034169143  0.010723760581758897 0.0027064351896451087   0.05926086119632708   0.05720138518959052 -0.006072333495450399  -0.30233956614448504
 0.006318195481254469  0.012204760045419176   -0.0080756003797356   0.06441659716929501  0.053118283414193675  0.006787822557071239  -0.30339804961243405
-0.016829487055384815  0.001863797536478274 -0.011341473651349188   0.06653581281225973  0.049758310555432894  0.019034161860734575   -0.3043861408139951
 0.025388425766737138  -0.00847998633480331 -0.002924237663905739   0.06585029063731393   0.04895018712982989  0.030515147729848258   -0.3052949297560303
 -0.03486744993400258 -0.008433900814947552   0.00766211458511171   0.06481704362130503  0.051121201916812645  0.041364101962010735    -0.306104973496564
 0.009264000279078876 -0.005450892132372718  0.019606568254096332   0.06117782093949585   0.05392693969753928  0.051834831364709066   -0.3068138042924075
 0.017401223689965762  0.001686227229394312   0.02530069038474924  0.053987788624830904   0.05324260886035838  0.062003038246376915  -0.30741305069074587
0.0026240450623901974  0.013237780251005036  0.021422099493203638   0.04536210306779997   0.04586531118514411   0.07173881761703133   -0.3078753509034166
-0.013666918067426743  0.009671063725917915  0.014600417682908597   0.03418119722227137  0.031595441929958126   0.08087072333145867    -0.308170735495971
 -0.00964732045608505 -0.004293819024418786 0.0020753990354636723  0.019611866823723748   0.01230741881744402   0.08916177338881598  -0.30820051716809155
 0.004498238651987908  -0.01609386647053079  -0.00835881870606018 0.0028981578310517445  -0.00929588734667813   0.09630738149897879     -0.30786308980122
 0.018042150910123185 -0.018206399698729198 -0.012021522702653978 -0.015842493720248943 -0.031248541498886884   0.10229425653010132   -0.3071526389502353
-0.009912471805567969  0.007471262692509566 -0.012001631244037197 -0.036388541701974565 -0.052899019746459316   0.10698653020417383   -0.3060716467214791
0.0045135805729014525   0.03025028265032236 -0.004237673690015039 -0.055799884361924415  -0.07377210318426913   0.11017202469538954   -0.3046509576983997
-0.009057341162572076  0.006354300152543475 0.0025997503097191267  -0.07279910426959037  -0.09317039792634618   0.11187373729945761  -0.30296804980074254
0.0003102935140677611 -0.028418536751907187  0.004310899867469845  -0.08760669300882605    -0.110116157297846   0.11208703668370426   -0.3010379150597483
 0.000030984252439672  -0.02120849511064221 0.0032422881687095752  -0.09855999429214797  -0.12410555658744492   0.11099227907325027   -0.2988704784844143
 0.010974980524184426  0.014315916075588091 -0.003231432600120168  -0.10483868076703574  -0.13605524843971933   0.10899685435800083  -0.29653252112291606
-0.004657913121936056   0.02960336544924925 -0.005561663081859948   -0.1059456184166128   -0.1483721486752491   0.10641537645246438   -0.2940771535602347
-0.009522422142016271  0.012074099537814631 -0.004009516066690508  -0.10127724695757481   -0.1639938129823743   0.10327818285953265   -0.2915375002294114
 0.003725419554325022  -0.00980817265618967  -0.00327934538389646  -0.09145967892499535  -0.18341052250759843   0.09981678535189274   -0.2889279312269355
-0.002979074952506702 -0.016773149825874297 -0.000720703230304149  -0.07814304140805786  -0.20291002634589309   0.09642846572207658   -0.2861926545934119
  0.01958262246179156 -0.008153024009846205 -0.004689265980601338  -0.06253465438955264  -0.21648729104773995   0.09321309566908226   -0.2832411627998493
-0.014676079791254163  0.007672808872771411 -0.009661274960511598  -0.04500997633782522  -0.21939331916469829   0.09026978194696056  -0.28009233519134363
-0.010185275038887442  0.009245867118439995 -0.008637279867119929 -0.026515130423466062  -0.21123943796556757   0.08725756646457193  -0.27686085699283225
 0.013361252016241911 -0.007440239671665566 -0.007124978874419968 -0.007740841003860739  -0.19429648506998565   0.08316936672695953  -0.27370751993821196
 0.011830478662525831 -0.015959939023781716 -0.000456252260815811   0.00968643457914449  -0.17129256012955987   0.07737392628135545  -0.27078773468910605
 -0.02153029478398193 -0.002396165469248629  0.005374657206822649   0.02416565104056429  -0.14437252193829125   0.06973412415510595  -0.26811142125962995
0.0027288217069605814  0.016574921239585264    0.0059898616990379   0.03574820165507446  -0.11464614289401055   0.06019216656556031   -0.2656178910652937
 0.001043116940956147  0.014689144715206074  0.008946849904045312  0.044991376468071526  -0.08366239768412019   0.04903071506304236   -0.2632616238979611
-0.000870412590050836  -0.00665779289463837  0.011989933056773143   0.05249791105033745  -0.05362633898036165  0.036653456563718184  -0.26100901589900705
 0.008994150722350316 -0.008737811601603399  0.015901577537847236   0.05774476773890471 -0.026495163502362504   0.02330746906471151    -0.258853131182201
0.0013350468084728038   0.00945917036842086  0.018704298917773813   0.05994238002525243 -0.002897332525326434  0.009444293095091236  -0.25677412706333813
-0.021722085633062944 0.0013852062665232687  0.014095160165663645   0.05861173639269692  0.018366186502463296 -0.004366890005909516  -0.25466681938676733
 0.030393982778152095 -0.023454592563848745 0.0046283648090829545   0.05469511566617891  0.039753190053178254 -0.017839733642321505   -0.2524058315049484
-0.008759877454125868  -0.02082227003711922 -0.006171080323716726   0.04978900998911174    0.0640752299549661 -0.030798934731673958   -0.2499443975832319
 0.002860790104187591 0.0003950761870974565 -0.014463518728750941   0.04401467849451795   0.09210865843865489  -0.04324690078609143  -0.24731792056426882
   -0.034253208545466  0.016859978918846632   -0.0166892700987712  0.036732968397906636   0.12093420922463093  -0.05533775924702021  -0.24467270682910516
  0.03482101969092099  0.020632476724638072 -0.014684888417400978  0.027822823775191578   0.14603078082621124   -0.0671113928349041  -0.24221187967774138
-0.008559186427290392  0.009527745075631198 -0.011578078471773655  0.018127516338786356    0.1639570897094832  -0.07852344098239065   -0.2400302143802983
0.0042317332912563625   0.00684726550170762 -0.006753008660072259  0.008837507852179946    0.1741432692379255  -0.08943183731299023  -0.23808088879661468
-0.014679841260667766  0.015665234854534412 -0.002202996676792673 0.0013118622562690863   0.17801037471879577  -0.09944415457304284   -0.2362918038570085
 0.023439470998855575 -0.001370982816957504 0.0000846386710718211 -0.004120792277300082   0.17706641486786373  -0.10814342187534098  -0.23458177949871412
-0.031284497157367634  -0.03345064284562043 0.0014168856457183745 -0.008669077801874606   0.17228027026134501  -0.11549706129056228  -0.23290123321848671
 0.027477331508089353 -0.025903295163703984  -0.00258962876931407 -0.012842471522509199   0.16455905908049348  -0.12134580715727131  -0.23126359601583923
-0.011644165196525877   0.01088614175430625  -0.01145854292766186 -0.015828539552586972   0.15569499484181124  -0.12558106078391745  -0.22962392992285285
-0.004847580451296637  0.018519670508177963   -0.0185914240548297 -0.017464205516448547   0.14779362711063376  -0.12838192168949952  -0.22787917252598228
-0.002242372216034956 0.0000163952168495216  -0.02269393370618901  -0.01738230261008273    0.1423875133740279  -0.12968291076802474  -0.22598735486099175
 0.044866064156568915  -0.00713811591122363 -0.018940844334314668 -0.015310522777364994    0.1395997041387009  -0.12958105661366787   -0.2239545110482328
 -0.03279275119572795 -0.007848316291952503 -0.003155360552025443 -0.012580011547875958    0.1381183788549234   -0.1284293871113837  -0.22183992494443683
-0.026966015839307345 -0.005767955597492026   0.01745162258950253 -0.010395722218958542    0.1362484259965266  -0.12642882061141794   -0.2197497390374897
  0.02031143325318577  0.006539771427063927   0.03754959111990915 -0.007818684637741274   0.13229265899043885  -0.12363966014551946  -0.21773042188521388
  0.03746371698888377  0.009501645376425744  0.051726104206204104 -0.003517660078916747   0.12518642588036122  -0.12032373770871595  -0.21575554747093006
-0.005828235698149477  0.012957376203943442   0.04987844702607577  0.002113845784351506   0.11569746799758104  -0.11675332473933266  -0.21377978430423394
 -0.05908329879407878   0.03926135011120668   0.03370048253602941   0.00853387120885242   0.10520400499915082  -0.11290552257755151  -0.21175996646991466
 -0.08334244553374333   0.03585168734367897  0.008900649686654914  0.013815617249579651   0.09441438665507701  -0.10900618794153485  -0.20964884422167535
-0.007065925436581849   -0.0199389885088464 -0.017347013010267892  0.015993949500793237   0.08363469578210374   -0.1050927764030008  -0.20741213052590177
  0.22567171406421063   -0.0417932565347669  -0.03263893031591292   0.01601720238225873   0.07257539744530833  -0.10078191017439374   -0.2049808009398645
 0.050802804529126215 -0.016936525650087245   -0.0332605780721044  0.015340855610682222   0.06091389685140284  -0.09592535218708645   -0.2022737525877254
-0.047359711663438324   -0.0541062121396518   -0.0205307465131184  0.013334057128669481   0.04881731868908442  -0.09031245150479807   -0.1992875184233678
 -0.16743939149879594  -0.16977203035675922 -0.001920115104725627  0.008411973731592172  0.035985850318163634  -0.08373542675245152  -0.19603870014218217
-0.005856691065316701  -0.21890371530348893   0.01201273713396079 0.0006371079840333291  0.021357529528353618  -0.07634375382792319  -0.19257034828712963
  0.03555761402065703 -0.025029495433591394  0.019833507716442395 -0.009155651428653176  0.004275260947029746  -0.06842714172978688  -0.18894631264403294
 0.018053675447741904    0.3811801785719083  0.021992910223999136 -0.018740111327739215 -0.015402710696633527 -0.060190252716100165   -0.1852024850352166
 -0.00884821704880319    0.6044859358279467  0.020918171913655158 -0.025635221269762337  -0.03724099064688393  -0.05176405429915029  -0.18139441312004878
-0.003772347304346703    0.3047583926280673  0.019247316503477087 -0.030593045000829825 -0.060182683449960375 -0.043248502623779266   -0.1775754994434748
 0.058114153105616045     -0.26066412069207  0.010073954390441191  -0.03459961476808486   -0.0832393096235789  -0.03468678023182046  -0.17377301295912864
 0.004843145371481981   -0.5379656784704678 -0.013328344537546707  -0.03690020293886469  -0.10559487726005264 -0.026284480980216074   -0.1699946691676067
 -0.03104194106436231   -0.3713815766623062 -0.049114584098424854 -0.036501766675808366  -0.12623212013804247  -0.01813115596902076    -0.166230330970927
-0.047825665057970715  -0.06574001811882929  -0.09364526282396715 -0.033367822389074854  -0.14447464808959423 -0.010100757322776474  -0.16246483402781856
 0.012040344808939916   0.09947816371133356  -0.14274016500631004  -0.02765348682032702   -0.1599568296343681 -0.002017214927348434   -0.1586854674045415
   0.0696337329413041     0.136288709782762   -0.1847699459855562 -0.020184327823604176  -0.17191467851440742  0.006363410816445869  -0.15489863874988682
-0.000006089791399262   0.15138490222342446  -0.19621495083373622 -0.012431699561295239  -0.18002753150739492  0.015036825797973118   -0.1511356793873178
 -0.08227524175338212   0.12952773191751005  -0.14365830314404582 -0.003033117329884631  -0.18431488715701816  0.023696181247435444  -0.14747445890017008
 0.038497682148612454   0.02138234035645859  0.011404347827454153  0.008608667889504883  -0.18475814661553913   0.03204002556692766  -0.14400025030308006
-0.019851095679176933   -0.0961109415597031     0.264158379000881  0.021056633518908904   -0.1816861538261665   0.03997366597301594  -0.14074433150267204
  0.04083345312395103  -0.08901477635463766    0.5249472373021943   0.03350426814877098   -0.1751135914661817   0.04729908892322617  -0.13771801468241654
-0.024213507253530903   0.03399684398225168    0.6646062341333414   0.04484394876785327  -0.16470537624756157   0.05390909797493019   -0.1349098819849352
 0.023066737235685794   0.09032892478576883    0.5668612686617975   0.05294045688591182  -0.15076453040753968   0.05986075641699045  -0.13229224612205626
-0.017900927752153337 -0.009021707149518311    0.2171230877186915   0.05675012031074594  -0.13394826457370695   0.06493904359274592  -0.12986173888956112
-0.004449100995335631  -0.09852310537106795  -0.24604430243672187   0.05694774675657763  -0.11488368945942487    0.0690943778739494    -0.127603616021904
-0.009956007012926073  -0.05330249060981095   -0.6229522788470186    0.0520461608759955  -0.09418243854736494   0.07243483132684098  -0.12545887442670692
 0.023216949533953857    0.0300626553587918   -0.7518522268966054   0.04196521171124655  -0.07238636944893985   0.07494719239787312  -0.12336893388960539
 0.009770188074628133    0.0573576766565913   -0.5997776875840024  0.028972675456260207  -0.04994231127828369   0.07669249370485295  -0.12130570803668493
-0.012660067483203903   0.03956387125774698  -0.27878354582994885  0.013808413748782675  -0.02750767382106277   0.07790070041206817  -0.11928111028194473
 -0.02045257148265606  0.004849070175367879   0.04533323225714898 -0.002114567252875598 -0.005936429419961485    0.0787464951196585  -0.11736806883374945
-0.006869924276104123  -0.02587424488286065    0.2482294134693666 -0.015067140126135865   0.01429868276622524    0.0792247202217113  -0.11566697530215603
 0.020860730918607004 -0.028086092157738593   0.29926928542662823 -0.023442353929275683  0.032576178494670684   0.07954938475722732  -0.11422621845770849
   0.0432318621775734  0.005380512420027158    0.2431087768319367 -0.029536147255066193   0.04832503488098269   0.07984110808632056  -0.11302455370796118
 -0.05285761247259012  0.033619668829695096   0.15477532506807806  -0.03506482963829779   0.06140642383692492    0.0800649207190871  -0.11200975556832908
-0.002416675044421756  0.009953513767610299    0.0775016067381179 -0.043275284123563955   0.07176939800817722   0.08024675316597002  -0.11110671041788238
  0.01221195337737946 -0.040673942832940096   0.01926080075427446 -0.057356245246382234   0.07942203973460175    0.0801145325926389  -0.11026833809927643
 0.008005019239173437  -0.04983450737261652 -0.020036919823265456   -0.0729916751949448   0.08432413001869891   0.07950142055853777  -0.10949873040472473
-0.024736507564034962  0.006519728420931304  -0.05165389959972402  -0.08342800297625003    0.0864583722884352   0.07853785773092192   -0.1087993932050641
 0.024901732802197995   0.06578990217557795  -0.06227811601060841  -0.08695635512983668   0.08614742488363637   0.07745124407842553  -0.10816257687128569
 0.011944402265612067   0.03959801904238755  -0.04177116241371054  -0.08356577416459196   0.08402135270087914   0.07641493966674523   -0.1075714049609781
 -0.04287282610369229  -0.03823245890689021 -0.004523588486605917  -0.06985180419802958    0.0805995011170005    0.0752950387983195  -0.10698643590157943
 0.032155381588679324  -0.05018151607541767   0.03780176754922586   -0.0408810363289466   0.07611633638343039   0.07393269572564397  -0.10643069575420877
-0.009134410618249926 -0.006627151952571471   0.06027333648566586  0.010808467657885484     0.070702091820266   0.07239754098882945  -0.10598658553413319
 0.003395973795514864  0.008126065985661485   0.05358165789638471   0.08787639167564124   0.06450552317279688    0.0709987786989414  -0.10572170855397732
-0.013062427575204406  0.011915591457375573  0.032137315580617845   0.17384663561406194   0.05781307662285944   0.06979488689230079  -0.10563029948306871
 0.006869521680448617   0.02425614079719999  0.006099039472496268   0.24442307413557923   0.05103754942565529    0.0683930077354593  -0.10555653947445222
 0.013744915600494106 0.0028049554378187245 -0.014055743313545487   0.28440330542740755   0.04421804030397405   0.06608062245937357  -0.10525235942861849
 0.014569042727893694 -0.022353004809006993 -0.025073969313727053    0.2907705977855951   0.03732109744005827  0.062148308946449196  -0.10454057841480693
-0.033891809930728975 -0.005519823136273671  -0.03233267623051109    0.2644090650055061   0.03054682891076247   0.05656077957962525  -0.10341244880098047
-0.048821870791543875   0.00806647496619408  -0.03358005882208983   0.20462100141693867  0.023996640179316728   0.04961630271953489  -0.10192081823608962
  0.09247239080589809 -0.002007615115010243 -0.025100421674229004   0.10700222664643988  0.017701506676068793   0.04160432637052091  -0.10013360929016804
 0.021005012148770742  0.002118732974717997 -0.014122597693533571 -0.027151667763318264  0.011899556502836051   0.03279363270617554  -0.09811861163972489
 -0.08064903296482073  0.022371138207349303 -0.005445397692827458  -0.17331620644672238  0.006738453819987228   0.02339636595816777    -0.095893575017103
 0.012934081317114968  0.026182916977263222 -0.005633188108118831  -0.29763824419676654  0.002235665624179336   0.01363222347212926  -0.09353641500790251
 0.008995667371728744 -0.013888426100009095 -0.018199234221981775   -0.3766867122390246  -0.00155893742283814 0.0038371785481282183  -0.09119500963951875
 -0.02968613415883618 -0.051812780120661824 -0.029071861831600276  -0.40565052272478547 -0.004956838636049721 -0.005552315258478782  -0.08895580342043899
 0.037691355653512844  0.011863136517050326 -0.027834252248304627  -0.39092181564957057  -0.00822678906763033 -0.014365680378609861  -0.08684648712146321
 0.008124943222155637   0.09634984840210845 -0.015327829514931248   -0.3395777857733069 -0.011360813559649288 -0.022561976492219707  -0.08484613656076166
 0.025014364556625715   0.02401017112787081  0.003696370046006127   -0.2568442228456129  -0.01420496193581718  -0.03012959577343421  -0.08288298079753506
 -0.02846155980917383  -0.10336539015679885  0.020312859234034412   -0.1487812161100696  -0.01666514944858867  -0.03720761858176561  -0.08089523565727157
 -0.02805412342896175  -0.09839154675648275  0.024428530130599577 -0.032892467722436855 -0.018869030943253533  -0.04390717424217619  -0.07886704019184988
-0.030239232028358563 -0.021578434836520635   0.02287472556575847   0.06879702227993367  -0.02085756860887484  -0.05021463851244559  -0.07682123223855736
  0.05322501028146272   0.04389357603788273   0.02675703520668044   0.14134546641335274 -0.022351791209599688  -0.05607096079385043   -0.0747819041577233
0.0069060372733686926   0.10009810874481985   0.03293242068416123   0.18134760456287224  -0.02288790133229454 -0.061482128901204094  -0.07280517586810482
 0.018733992134109416   0.09321862373433172   0.04211702645743549   0.19375901300897608 -0.022101001002495246   -0.0664328926228735   -0.0709396863991722
-0.029916899146410453 -0.000327681756057784   0.04917099244596947   0.18529070505992948 -0.019731096128976725  -0.07092998829799212    -0.069217320895506
-0.020852093639088416    -0.105267161336328  0.043477105040635594   0.16532940471414564 -0.015679909889277935  -0.07488113137838467  -0.06769151667446777
-0.009626034172460763   -0.1259873172844557  0.030135006812786275    0.1411847777309157 -0.010197791143767591  -0.07801591920503007  -0.06637951974735196
  0.05331536322549681  -0.02981169512964183  0.020091780392177707   0.11668965905796498 -0.003674391408529782  -0.08032524239798927  -0.06526181068356128
 -0.02652846095651077    0.0872514655712324  0.008017286808520705   0.09405540987558762  0.003266982978662406  -0.08204056409542528  -0.06428935984923279
  0.03573731286905225   0.10113727897974514 -0.011097669916524555   0.07273646518089742  0.009928583426495855  -0.08347557626251634  -0.06340796105238523
 -0.02121551126380965   0.01671776562999446  -0.03373015956726946  0.053054433668004705  0.016171155556045563   -0.0848507928434628  -0.06257919716543896
-0.021408947638414163  -0.06895247681354826  -0.06823965779770574    0.0357965129567823   0.02186781127343807  -0.08598337099662398 -0.061778636627700854
-0.018163121578349695  -0.06802462054083142  -0.09256151462305415  0.021948311329199034  0.026629906930553546  -0.08670742690677308 -0.060998819595328206
  0.02696630904065043   0.01966620800929557  -0.07704682125802165  0.007284172188769301  0.029903714007298722  -0.08723796803361583  -0.06021500674232856
-0.000130347189105162   0.08823606507745572 -0.034976721067774906 -0.014063970298410456   0.03153895096229186  -0.08795232990670626  -0.05941642370081543
 0.010702569320592601   0.07221020887709452   0.02004797667587098  -0.03974782156793508   0.03245322506800241  -0.08880884113180491  -0.05864798191691487
-0.009870998402233268  0.007112354218915657   0.05468418093924554  -0.06317973942309069   0.03374967454829586  -0.08916890110674504   -0.0579852355827486
-0.031080832531855708  -0.06863920129117365  0.033090835026824694   -0.0772262980574634   0.03606296031235464  -0.08789985053114488 -0.057530089869444655
   0.0532956660561124  -0.10479399321709228 -0.020992546541918955   -0.0798271963548403   0.03907101964597223  -0.08403067559330096  -0.05734887372051315
  0.04680618369619237  -0.05672362711152451  -0.06858930013387923  -0.07292002332676559   0.04165768784680561  -0.07762075198045032  -0.05741416029618537
 -0.07880822909857609  0.020629693290330337  -0.08049579647134485 -0.061606440495235004   0.04259109981959829  -0.06909424799639162 -0.057653461086502565
  -0.0628638155617068   0.05240848897656363  -0.04143283975229058 -0.047035889348610936   0.04103692110394273  -0.05887266132893115  -0.05799229579706895
  0.08088803143212106   0.03860579000933832  0.019420681287334686  -0.02436113335814267   0.03673342627416661 -0.047397183575286134  -0.05837532936826525
 0.008012712340299924  0.017152160491919602    0.0599637812617709  0.004565427183663194  0.030232021137797768 -0.034871769067881905   -0.0587867291066306
 0.011565878930466225  0.038852085550285104   0.07173657904723689   0.03558475232982857   0.02293638354413411 -0.021572902671555934  -0.05921980689791741
 -0.03510888339083165   0.07267196347926516   0.06439154896191558   0.06523573982990889  0.015994199391221056  -0.00809392502379293  -0.05963357824763779
  -0.0445014830835629 -0.009845032992509276  0.053655564148113226   0.08996022489126027  0.009835403749415344  0.005015387699299597  -0.05999261738751799
  0.05357544351572538   -0.1461351746202141   0.05457629676670819   0.10760868310879287  0.005120739232622039  0.017555352906500985  -0.06029184691374233
  0.07539038876189387  -0.10958116188540801   0.04881988267600022   0.12000030661625023 0.0030575155019153663  0.029504510976224047 -0.060560313785076765
-0.047922981256023116    0.0502378994312737  0.014473055198167634   0.12684168296137627  0.005302960544752501   0.04100340359707064  -0.06084686800335947
 -0.08348535185413358   0.09824545808373769  -0.03997346179361006   0.12392596944059782  0.012112872011924417  0.052286247791016156  -0.06117090814510774
  -0.0075909245006755   0.01806347018395939  -0.09599150052167099   0.11371835859419428   0.02035198208832113   0.06330733266983318  -0.06148362126664031
  0.07318883518003967  -0.04791981045622494  -0.12184593829953487   0.09589653451040542  0.025674073197826018   0.07377530343168903  -0.06167946951799648
 0.039025499788521496 -0.001227818752847952  -0.09257920651848192   0.06754846720672913  0.024739168827442638   0.08341874678310654  -0.06164755734942769
 -0.01960250532133255   0.10299671709986097 -0.022286896663134534   0.03173754722582228  0.017196936956276377   0.09196443306491711  -0.06130284950748452
 -0.04806066610718685     0.068448784207757  0.056072205983087604  -0.00780129357644088  0.005266965904714781   0.09928289067223717 -0.060628745844402136
 -0.02226055905209354  -0.11718408863282209   0.11255856599131721  -0.04805745572543021  -0.00828376502444223   0.10540434699757685  -0.05964390442601111
  0.05879750011828668   -0.1849345309183461   0.12147359981647328  -0.08329293674994528 -0.021373743422708206   0.11018736662259915 -0.058375337956657974
 0.007471908824645995   -0.0159477266270971    0.0770524769466264  -0.11074404444718848   -0.0328588438168427   0.11348404412957606    -0.056870660127029
-0.040764198145190084    0.1663696566754789  0.007411254346862508  -0.13526118505727064 -0.042605707733739125   0.11541627160748873  -0.05516369906727229
  -0.0178413647375981   0.14565593315344205 -0.058248629340051025   -0.1555786176048318 -0.051459027257443155   0.11627334129214201  -0.05329863946427174
  0.02407214696924634 -0.018488669017955327   -0.0992037145332533  -0.16604503186858674  -0.05978951593919253    0.1164430274981104  -0.05133046176807809
 0.028052696213259867  -0.11908254643188604  -0.09086232903995552  -0.16559179580199143   -0.0677395437893763   0.11619407805734779 -0.049294587742581816
-0.011234940435007088  -0.06363737783582094 -0.045089866313014974   -0.1526791103348831  -0.07642463571766947    0.1154523182106624 -0.047225598329352386
  0.01567283525177841   0.02574343875088749  0.009440633245070513       -0.130066715176  -0.08794465544549472   0.11411116136758154   -0.0451244811105943
-0.017814305374581094  0.007235332840483052   0.06186712581713094  -0.10573083483572641   -0.1052823615760759   0.11237945781482417 -0.042959414047396685
-0.014183618527613184   -0.0534407050731789   0.08414576190794307  -0.08171642570804447  -0.12893141711263412    0.1105392389925211  -0.04068710253871863
-0.000585029932084147   -0.0194315136595421   0.06465933451427908  -0.05363108730712704  -0.15391012613857213   0.10849237488672861  -0.03828542509551075
0.0019209826633295127   0.07352322683809351  0.022393856167705936 -0.019966685259673163   -0.1732279260662992   0.10577352367693069  -0.03581563652730007
-0.020912582586238158   0.10422881053364588 -0.030015138354131905  0.016433953005840916  -0.18134420809148774   0.10153096088828606  -0.03339293332769306
  0.03193651134874233   0.05715440938161074  -0.06382596007376155   0.05000925217741442  -0.17737339322913942   0.09507775388713151 -0.031135648643444785
  0.05210634435616757 -0.013900004786073103    -0.055168888253516   0.07302268802055864  -0.16423574087282644   0.08658999822082045 -0.029097887794791416
 -0.08045337243422727  -0.07315505125831616  -0.01618764607436771   0.08338199889576854  -0.14544217282622404   0.07648289113982695 -0.027295839206563286
-0.025288878361797426  -0.08651230463610608  0.025145639062506074     0.086130941298577  -0.12341582524753715   0.06514969837510635 -0.025733483785817253
  0.03816010377745842  -0.05120320781123687   0.03878548435911919   0.08578239436373994   -0.0996087340709097   0.05298372785903596  -0.02439002581871021
  0.08213248828727415  -0.00999908075278488  0.013348108219315445   0.08233667218367392  -0.07527945582958749   0.04014013457332274 -0.023226024400004406
 -0.05640907196615563  0.035407024642843954  -0.03473582769561209    0.0716201537231117   -0.0514176189356268  0.026789280166566915 -0.022146761163560447
 -0.05507740362643153   0.07200674048828672  -0.07077227275112875   0.05276246201414008 -0.029304926674823602  0.013365439529287529 -0.021039610250406567
 0.028279462523487175  0.017272494767175312  -0.06845990057440347   0.03155497503266665 -0.009214602313446153 0.0002658040516758334  -0.01984564182048648
 0.060322559010805146  -0.07702681033795103 -0.027891574918403047  0.015362812528957765  0.010248323485244982 -0.012379425750550916 -0.018539352696872496
 -0.04722480030580071 -0.030641726790531815   0.03633659206474567  0.009442738304005951   0.03150898750419573  -0.02457212603854242 -0.017102901665630044
 -0.04657584961788781    0.1122220405596232   0.09684516047517999  0.011464347920400183  0.057842227895996204 -0.036456743242182385 -0.015525617965009177
 0.014327374807946176   0.11202869103560482    0.1270038411586756   0.01319946328141695   0.08974689827549909  -0.04822209509274594 -0.013841481070851192
  0.06093002042588903 -0.038305816550921065    0.1123233326061182  0.012296218456356563   0.12292810737545497  -0.05974157591672352  -0.01217504937020522
0.0030367701235747575   -0.0986196812883231   0.05053557027320862  0.013754554589804383   0.15184352164487344  -0.07064943418175712 -0.010678708598564879
-0.030780390652265868 -0.015896673080901706  -0.03764463622232394   0.01785120634518606    0.1721152825623527   -0.0806085456570367 -0.009468176755729939
-0.008845895598041897  0.010502310791393264  -0.11760132580040294  0.021155226033676523   0.18301980811731983  -0.08927205017265256 -0.008538578398616402
 0.005605894922918089  -0.06590623196204368  -0.15708805041401738  0.021223226924613293   0.18691514697493097  -0.09651930148943659 -0.007807960405031877
-0.001332149051579017  -0.06407113464756592  -0.13946372874266671  0.014649619118705368      0.18607092626201  -0.10242777653734335 -0.007192860926658624
-0.009482287461442333   0.06196309185598663  -0.07945462917435635   0.00524883314325458   0.18149467376849948  -0.10692766875116172 -0.006619733794111777
0.0022957274169245583   0.13609608180483918 -0.008307927068066167  0.001038446028411303    0.1740971872750638  -0.11001379402497923 -0.006046310316634483
 0.029928485259177025   0.06177770258299006   0.05252348496514293 -0.000276395331343517   0.16537640961158234  -0.11181273195982645 -0.005452880788295831
 0.026320963380513426 -0.048382191011386674   0.09042208755588013 -0.004488568012709941   0.15729202577203694  -0.11248383825052792 -0.004838396332167635
 -0.02395590252160044  -0.07568042390285672    0.1085412593645246 -0.008567945669144119   0.15182968014301654  -0.11228758508291305 -0.004197271009096272
 -0.14527713502640494 -0.038778320899499424   0.11455424163525928 -0.009842877969944399   0.14886711988903434  -0.11141188173475297 -0.003536303600456883
-0.006224480200225778 -0.000132009677669787   0.09983740198829105 -0.009177330449526604   0.14656181149991698   -0.1098736993042844 -0.002863359582500719
   0.1651862713803572   0.02576556680535127  0.060868292050751636 -0.007460134138469705   0.14270542593567534  -0.10762359196510189 -0.002190589725846722
  0.15045428465832056   0.03775756009090732 0.0022542459313380225 -0.011231417973582401    0.1349001184240772  -0.10476235552936969 -0.001566585647299703
 -0.07269129143098932  0.006781969085518893  -0.06103413244564397 -0.023598530142999407   0.12292435102763041  -0.10141697059318652 -0.001003604308302078
 -0.20219317200151266  -0.10471126524473567  -0.09995536496466752  -0.03467024860971418   0.10884264818214197  -0.09754694528500645 -0.000422468889692669
 0.037458915710425505  -0.23511994310601875  -0.09710595746375851 -0.037565308249061125   0.09396813226552114  -0.09311660626221958 0.0003136063210109267
  0.05787373540377735  -0.15600166565001453   -0.0526681475417152  -0.03693946100188176   0.07904343901114831  -0.08795783550014216 0.0013668018439194933
-0.007480188614088636   0.23435316272097406  0.013374654617419754 -0.036514723274288854   0.06434896033020512  -0.08192958716536697 0.0028199742142725973
 -0.02271643552640288    0.5720375509664053    0.0658675824858573 -0.035359304656872564   0.04899670164676261  -0.07520910621786923  0.004637900275583446
0.0026521555603187877    0.3883504404998837   0.07713821186139509  -0.03037864664702667   0.03306508876672719  -0.06796561413599721  0.006744177363093887
-0.002863421648201647  -0.17565922087193667   0.03833793663330126   -0.0157152438080339   0.01754746507446771  -0.06031643648440606  0.009074357049556891
  0.05192438708574945    -0.479139056840413 -0.032648341336353436  0.006890295450911798  0.001876062184215552  -0.05239811393769891  0.011587289958240786
-0.002860447280934382  -0.29528852503734737  -0.09917349807007811  0.024027874202419634 -0.015136235148131665 -0.044319086480667014   0.01426229822841973
 -0.04147631110297227  -0.03222593631581608   -0.1314684528413318  0.028506879285275198  -0.03481290655980628  -0.03617116930925094  0.017053645077387682
   0.0259263320678232   0.03088355308545402   -0.1272980150041919  0.024439035698969193  -0.05826800192387716 -0.028082957660327007  0.019868299082586076
-0.008738800136409257   0.01758792465243681  -0.10781296831193216   0.01732530719791608  -0.08433695254864369  -0.02017553561670428   0.02265092861663214
 0.005000387679436096    0.0464538054210534  -0.09124443106270619  0.008776498528804685  -0.11052952083383424 -0.012492458962304134  0.025391880758490516
-0.039742892456130205   0.10058596324894054   -0.0665657463372626 -0.002070719913885629  -0.13511264364044825 -0.005100967143112239   0.02811782245470397
  0.04521911103264005   0.11193592953766426   0.01195997924146657 -0.016906814188862994  -0.15681387153614976 0.0019438782056092063   0.03086972125368019
-0.018711732018650194   0.03910028730188837   0.17303271161292985 -0.032768752547231536  -0.17540806178449103  0.008695045732711628   0.03364275878629783
 0.045213629134583724 -0.036494055171037716   0.38253205859068107  -0.03884154997194797  -0.19149020910664608  0.015224031266302668  0.036401361195146885
 -0.03233391179865352  -0.04124350552007548    0.5374404259692863  -0.02970836501402109  -0.20359936258302655   0.02159084244224535   0.03910065368897469
-0.022894662428553363  -0.03063611421372568    0.5132409445392797 -0.009569792070623112   -0.2098053200969051  0.027832189438353108    0.0416901124862711
-0.016159300043873816  -0.03269777561848468   0.27221300116352176  0.014083659166194987   -0.2104065126477003     0.033813869119276    0.0441194477487417
  0.04758643365715447 -0.001210278889714655  -0.10948135207122814   0.03666038381948519   -0.2059186208010479   0.03942578648134804   0.04636912977037527
-0.003650579017832098   0.04998629924789251   -0.4716116629107803   0.05602468668517946  -0.19798646746958393   0.04464865572656246   0.04842260654441783
0.0066351237985262275  0.061995222549619595   -0.6513926776916797   0.07101292778828612  -0.18860349484338315   0.04938258568454207   0.05026631102893165
  -0.0445773779972465   0.01445919852501198   -0.6040728819253155   0.08008578066703045  -0.17679588127964074   0.05360959219145748    0.0519187910694978
 0.014495569706397069  -0.06273062518645339   -0.3867421388820753   0.07769079441737681     -0.16092439358617   0.05730244881354199    0.0533985127174849
 0.057069731549890805  -0.08579163152839112  -0.10837652450921317  0.061683216275611026  -0.14044166907861272   0.06033448574883276   0.05475472853936425
 -0.06532688094913021  -0.01402270445740227   0.11516794005229589   0.03695495304097808  -0.11548370652201297   0.06265253816690647   0.05604713029252727
 0.020135715641599668   0.06198717459518377    0.2411150112596484  0.010857708119934108  -0.08775654643757258   0.06424221246441164   0.05728675288565595
 -0.02350947941629835   0.05137941053130093   0.27542686732329436 -0.012810424042466777  -0.05979098401285577   0.06512669389370462   0.05845945493409648
 0.025440826659856263  -0.01502327729370078    0.2346681254376055   -0.0342277455582409  -0.03247477787828405    0.0653282533701609    0.0595485163350781
  0.04783350838004716  -0.03624881657473976    0.1586213228371437 -0.055326140501348854 -0.006191435156549009   0.06493320862054466  0.060547672353311675
 -0.02045929802480661  0.010032107195610304    0.0804070712868144  -0.07617480971758503   0.01828464068948739   0.06401012198691317   0.06145397296097581
 -0.10479698440203966  0.021153162748239092  0.019819802793971233  -0.09161053809153559   0.04098492246792757   0.06257133934046538   0.06223216251694695
  0.06681606821655388 -0.023565538159638362 -0.006614561080944048  -0.09595910973080986  0.060539778902930816  0.060763099351158464    0.0628092043402228
 0.015569858211672609 -0.025880847822196226 -0.005235208593472946  -0.08894519251251705   0.07484703724141754   0.05876238002572456   0.06311811613925417
 0.012075143360522424  0.027007051346187895 -0.000782514382607964   -0.0745376586744626   0.08451369523510377   0.05670569542391182   0.06318412541974933
  0.01707332989282149   0.06934972071712092 -0.010451416072325019  -0.05365570386121713   0.09068179784228511   0.05465903228066925   0.06308479683040445
 -0.02551095672469262  0.024098747402339412  -0.03172995090298955 -0.021490868791771037   0.09501516779956941   0.05253657315349834   0.06292083033123147
 -0.05260179325463347  -0.10012333954215065   -0.0543732695468053   0.02962034617468408   0.09939427252354044   0.05017848913509931   0.06278628584340708
   0.0206494468586134  -0.11583498371287473 -0.060306687401954086   0.10008010642602462   0.10265539774916314  0.047481616780308274   0.06269997576810915
-0.009128219738648944   0.02996810323158923 -0.038511527330673395   0.17657228871097957   0.10246949761351541   0.04460446217029371   0.06260769536457528
  0.10313201953518403   0.12870269297808618 -0.008627667942909537    0.2371506149243465   0.09833592559965437   0.04181049688956062   0.06242012623919297
 -0.04496408727617495   0.08705467903814687  0.016491545144179165    0.2673900400594211   0.09093050359231121   0.03920776549859381   0.06208632727264518
-0.042839491257517265 -0.019581011408809017  0.028319906731623757    0.2673579706774466   0.08149429581276624   0.03679457218664671   0.06162125322757148
-0.039615238419383414  -0.11555558068146257  0.016995838814213477   0.23938371271944264   0.07149494865602975  0.034594804604580656  0.061051939145065355
 0.042128253118837604  -0.11210780281481672  0.006698385570980021   0.18121070360824146  0.060661705134930965  0.032769320943171955   0.06035667832012854
  0.05237392546861864  0.009321099932790827  0.004785076396304381   0.08622247044354542  0.048629433390177376   0.03158843974777576  0.059473556453875594
 0.008093917741179697   0.13332436660271726  0.005663333721246409 -0.044776150440746246   0.03672680702302609  0.031093621690014377   0.05840867711296418
 -0.07297932160979263   0.11861217258491921   0.01658620659237436  -0.19107728613481112  0.025573303734405105  0.030745478309127963   0.05733821886166886
 0.017848857067276257  -0.03872710902276444  0.010654493231736041  -0.31612059629519584  0.015541075379998989  0.029700457861192756  0.056541107348665756
-0.001294821585075184    -0.148002647807818  -0.01579102917799393  -0.39405747282930675  0.007741015408944327  0.027273608327398825   0.05624908251233846
 0.004498707404978669   -0.0653448327597453 -0.035828541100783956    -0.422694921537664 0.0018040829178422452  0.023327682378524173   0.05648389130505831
 0.016983693698334835   0.09981485256060788  -0.04714105226066337  -0.40823889623796084 -0.002909025791886257  0.018099974866693094  0.057121722866315346
-0.006995024160918108    0.1395987488551584 -0.030505631211558373  -0.35719885187538386 -0.007063214313268439  0.011910419293500977   0.05800828708994673
 -0.02933299838393281  0.014404787942917517  0.010968543945382145  -0.27148948884686214 -0.011950207458108106  0.005082563043624912   0.05902379649127911
 0.013651850081540743  -0.10150131424638603    0.0306350897825311  -0.15316928409534286 -0.017134568890894496 -0.002204449658053622   0.06013867434625932
 0.036539686774564074  -0.08547230963764907   0.02316994052501003 -0.018642212333147407 -0.020986292939105367 -0.009697966057528982   0.06136109264258738
 0.013877122074069131 -0.015095713993375375 -0.002386643491691209   0.10111979681965685 -0.023211786952418028 -0.017032383138843695    0.0626854373017923
 -0.05301620990004515   0.02524707171204052 -0.030738360618030182   0.18417304438566337  -0.02445693177348537 -0.023882443175559046   0.06407828633594496
-0.020400047606552802  0.027183183039503744  -0.01982996783160646   0.22754968231021655 -0.025007980951877513 -0.030037036861137983   0.06551336939160969
  0.01289655657189592 0.0006793571654121269  0.018562346800790847    0.2371764466087264 -0.024753988758829868  -0.03547875947578062   0.06698504576702767
 0.030490267275857026 0.0002444516614790674   0.05071889638316944    0.2234827917426494 -0.022349779339335803 -0.040290616556039965   0.06852566604445036
 0.010253217471037782   0.05167083516208186   0.06355325252191373    0.1941844686019481  -0.01671621404631026 -0.044663195038531917   0.07019563746165625
-0.010821082190908632    0.0639679637029403  0.044276378126566485   0.15104017714943568 -0.009091544721258771  -0.04869206570563155     0.071979871978217
-0.017562870940371542 -0.026218755764257914   0.02115331035488638   0.09919752243016172 -0.000721210975650781   -0.0522621023278932   0.07377562609989817
  0.01416572068252867  -0.11678221544804346  0.016757125940425804  0.051263864122707774  0.008142010276120168 -0.055207251808823764   0.07544341622870095
 -0.01658361774873211   -0.0836055828979478  0.018430219314327236  0.016544878385943932  0.016830649121415006  -0.05743733709453171    0.0768379854362309
 0.008197384045202994   0.03299291096656917  0.015120472807512633 -0.003335474494024812  0.024823597542926866 -0.059027881220260425   0.07792344415552262
-0.007606948711992124   0.10014930106324055 -0.013530852312614985 -0.011570027738039983  0.031535134118906266  -0.06001275258046872    0.0787506061348956
 0.023756420625332245   0.06584043511934046 -0.059636835164235916 -0.014045995180163917  0.036354412638429034  -0.06033362107435693   0.07938778183602233
-0.018750509991560128 -0.009485233657024672  -0.08823413266348779 -0.016161275211839222    0.0394540613091535  -0.05982530074676428   0.07989037184536665
 0.010839939603481216  -0.04779149001837412  -0.08511140992882615 -0.017657575632104877   0.04118700042543592   -0.0583013514083876   0.08026607043663596
 0.003081051597950517  -0.04110415774356548 -0.046232807389587835 -0.017157651459217334   0.04224008391325668   -0.0560042890965048   0.08050719974418843
-0.002654787658801415 -0.021912090602764445  0.010005629934575582 -0.017474467790719084   0.04417399166901333 -0.053458421703874416   0.08065841866370203
 -0.02013840798831532 0.0029826645595443443  0.049882881355423965 -0.021066278631373357   0.04834845384973043  -0.05100908519651035   0.08080973935416899
0.0032526406315341906   0.02934530620934137  0.059569601502086844 -0.025594761022850545   0.05441545319314693 -0.048752015135878124    0.0810031547493029
 0.038348089827592344  0.034349559473701816   0.03568581663267296 -0.026909003640432153  0.060910015443651454  -0.04678138575517561   0.08123334560864888
-0.051907225374376295   0.01944825905913665 -0.010210956820929769 -0.024236419483132234   0.06558960789468347 -0.045273160354953754    0.0814580396063356
  0.00328618067107141  0.006995354783595831   -0.0518392248378757 -0.017682176165934746   0.06664687653212387  -0.04453282249104821   0.08164055528910694
 0.048991509109310355 -0.008395008279092432  -0.06789893736844041 -0.011130699926190212    0.0645198888397302  -0.04465119732621588   0.08181548287773446
 0.004952205401804289  -0.03521969285752202   -0.0477313758990979 -0.006297424793711721  0.060172805655233856 -0.044805555377388534   0.08199880497846238
 -0.06356909116018827  -0.03640136047406624 -0.003391093781780688 0.0029420083153434314   0.05392892327285723  -0.04372857473199857   0.08214575242173613
 0.026828394296485564 0.0002903417122617317   0.03820333395346654  0.020852259875593523  0.046377223923233374 -0.040428995069543956   0.08221776182272354
0.0029835633525362275  0.010415429275144102   0.05336246140400452  0.041866157104025636   0.03858827440987352  -0.03464363362974454   0.08222313375191698
 0.011927913333454407 -0.004431988768125908   0.03480449259758603  0.057517259726985744   0.03198104505300016  -0.02669215006012298   0.08219551633812174
-0.029749734956740204  0.032988875999628804 0.0017635885766077216   0.06604724080771834   0.02833065264748838  -0.01710440090674377   0.08219298444048846
 0.029941863132294834   0.06321676511461308  -0.02010122253880553   0.07012536927275036  0.029228568737023213 -0.006382812690173431   0.08225629894789782
 -0.00989811226428916  -0.00626101804320342  -0.01622116193318713   0.07715437566613595   0.03436937235175772  0.005144614663827056   0.08237662411249742
 0.003379015610504115  -0.07064367893471765  0.010100103071704072    0.0881484554941785   0.04052506179514852  0.017042658427473434   0.08255525373544817
-0.017791165680143693 -0.033473698546522115  0.038271661299552645   0.09142520955033287   0.04277939319699641  0.028906789331299598   0.08278511526478885
  0.02191031877176966  0.015759345452899056  0.049345221686964584   0.07823468720783223   0.03761909100975942   0.04038651297930042   0.08305914107205745
-0.002368386972118441  0.012065614027751324  0.037416416672019566   0.05306261670009184  0.025351999285196217  0.051187629793067416   0.08341447281486045
 0.002981108636010067  0.006315119009123172  0.007887233606946665   0.02653897862964476  0.008264518052397713   0.06123647268133541   0.08390850721956618
-0.030872326482285578  0.017228347841538733 -0.024557061037738196  0.004196228577319883  -0.01087159236648139   0.07059300488092948   0.08458776468677094
  0.00769288117381637  0.010392872033597669  -0.04339602375065391 -0.015847315667296094 -0.029830478401470698   0.07950389204149996   0.08547311659730987
  0.03223112507492691 -0.007076622883018573  -0.04395009363281965   -0.0417750069142557 -0.048122392534736436   0.08811720080929022   0.08656414612632628
-0.010121253206536882 -0.003175667178664014  -0.02540342344643077  -0.07495635090397304  -0.06535285955160518   0.09614453435158694   0.08788554407508672
-0.023174045973842334  0.009717019684387061   0.00559761327398163  -0.10350648219097494  -0.08048218996668259   0.10293570586493138   0.08953625821249606
 0.017875365525963062 -0.002063862465916232   0.02859716100046706  -0.11722433227125034  -0.09316803364504783   0.10792774686175871   0.09162519615148285
-0.013426517273944286  -0.03328633299160063   0.03573370281246313  -0.11781901743962586  -0.10406500685575923    0.1110599549920816   0.09413551059490755
  0.04592617439643669 -0.033651939955052015  0.024215118184855628  -0.11383632340258326  -0.11448946868670164   0.11244947150215397   0.09698920698654191
 -0.04518334284618147  0.014491105903877758 -0.003626390990320336  -0.11094258749183829  -0.12699840992744904   0.11229627034591488    0.1000715966275138
 0.020162800372745326  0.042173967186512916 -0.026156588673341072  -0.10782241786771958  -0.14451097846757543   0.11066435702033381   0.10326371269967888
-0.041957541110847416  0.011946258544644525   -0.0325402186670379  -0.09761750189990798  -0.16710723872097347   0.10740621570906513   0.10655789333097912
 0.023743166580498982 -0.011131560191379355 -0.023554651670721273  -0.07799394096902414  -0.19056690612667454   0.10276925700602438   0.11003560111232849
 0.012148762958582473  0.010471030006475092 -0.002232071657876859  -0.05656790760366897  -0.20805361416843288    0.0973175752568622   0.11379124519647767
 0.011162930827753877   0.03156060129933984  0.016923092960637924  -0.04038612222982073  -0.21452193345694545   0.09151146899179365   0.11785860204215921
-0.014795114872926115  0.009234997555817508  0.024601109583743352 -0.028125552707800552   -0.2101930947022234    0.0855981586902491   0.12218456659782305
-0.011596021065386285  -0.04125710715971612  0.021265948514487945 -0.014368629574648184  -0.19743167199795375   0.07980619110632321   0.12668117773981113
0.0038036671290235732  -0.06781740476456609  0.009021052387506227   0.00367141555193945  -0.17841666907103282   0.07427402995718892   0.13131558870679955
  0.02440292679300488  -0.03912341956793543  -0.00618195894559102   0.02391697645372168   -0.1547290620114792   0.06916664198622555   0.13610638478664439
-0.007940566818935402  0.024505759123851223 -0.019481992112105235   0.04134462644381155  -0.12699426045147932   0.06457260554193517    0.1410386659628748
 -0.02601190127205702   0.06113579768869493  -0.02555216744182133   0.05280699050208141  -0.09689304688928968   0.05985152415966231    0.1460102480114367
 0.012844517157710223  0.034339801467313684 -0.020009045121435913   0.06109751912034164  -0.06762364611084273   0.05414278359886481   0.15083912510732844
 0.022040009409112653 -0.012842779622985283 -0.006178025593096902   0.06931493941490122  -0.04093941289853947   0.04684666600614619    0.1553598692611861
-0.021460899496506362 -0.019064337101133942  0.014880332868061072   0.07574291939521949  -0.01679570340330955   0.03770880183730434     0.159578115095778
-0.010906939032178261  0.013368210061179206   0.03447028590527186   0.07665084016556215  0.005790738549332266  0.026844525144478732   0.16360622460453925
 0.014707010537815365   0.02470167855543269   0.04118676623868106   0.07100250213208444  0.029563542798623322  0.014588328383026608   0.16759026727505325
-0.004754211927099926 -0.009557134327439203   0.03540214008625519   0.06086961226777098   0.05717338996738906 0.0013290914553646819   0.17166592378682646
 0.023654279167220835   -0.0279428692533331  0.011434780007589712   0.04854694585686646    0.0885940470901241 -0.012542493391203396   0.17582733395735609
-0.011684694547332581 -0.000516964417492639  -0.02468149233585729   0.03717186814115059     0.120780915491505 -0.026497865843433152    0.1799476857048122
 -0.02135537908602285   0.00820831749942122  -0.05868684969819021  0.027233675861324386    0.1487677505878902 -0.040268301479768606   0.18389170079353329
 -0.00412658723856368  -0.01680587150900923  -0.08040740694377256  0.016685124481215813    0.1689653385939686  -0.05370905664477842   0.18758148341438122
 0.018117706764399038 -0.014212382284436366  -0.07396558808567069  0.005794878315807453   0.18216911547334116   -0.0666129504603214    0.1910215332725696
  0.02145380266408782   0.01815204777229812 -0.040918609740000805 -0.002620834053493596   0.19008633384170565  -0.07890993601677135   0.19424943804126302
 -0.03966754879541938  0.033762668430760846  0.007126402807093396 -0.007790693876202518   0.19318946726605213  -0.09057710075201135    0.1972670407817281
 0.015205741570265755  0.012881837136856257   0.05240647022843142 -0.010569853746766826    0.1914651676029048  -0.10177904107888223   0.20006310266220625
  0.03717853102451629 -0.033572728585119005   0.07566688048303809  -0.01048807424690709   0.18468078980380925  -0.11271822565035959    0.2026960058308859
0.0074438472182207956  -0.05438216757365979   0.07641331239664191 -0.010188975131845338    0.1744956204807243  -0.12313069806319224   0.20527475231863374
-0.062462727560503514 -0.008524944456019149  0.059103109672997985 -0.012017965409014094   0.16470571942328321   -0.1322198557906437   0.20791923611658825
  -0.0852863275624132  0.052611632725561575   0.03342205033598639 -0.013285692786482613   0.15737553594531697   -0.1392941463047528   0.21073891735928896
  0.03268708398560414   0.05535110997992075  0.010232014417968168 -0.012492231037953251   0.15243787029827255  -0.14419662027009966    0.2137466363276152
  0.04141334988632453   0.02462443131516654  -0.00956245875733416 -0.011605602590312743    0.1487472174714461   -0.1470056438338764   0.21690075472015813
  0.22023681901764147  0.013296205463745594 -0.024655920499378016  -0.01126601959139465   0.14383539261485184  -0.14802284930233603   0.22014100651381346
 -0.06649357302159598   -0.0314370085982216  -0.02978165418249336 -0.011602671694215565   0.13629245168621928  -0.14742228154818007   0.22340182216710264
 -0.18918738400239724   -0.1625783838445235 -0.025057399207453483  -0.01357264610175861   0.12650571905016414   -0.1451342853067927   0.22668764642358333
    0.026318635424661   -0.2466345682740625 -0.013930605343939962  -0.01470485568033596     0.115466672505426  -0.14143197076199077   0.23005793985399328
 0.014625673710765468  -0.10116400807978196 0.0003965763621293951  -0.01211494813805701   0.10434757611928304   -0.1367613818406519   0.23354001525413956
-0.001310912501570297     0.239348709816889 0.0056089703888794785 -0.009065162781904224   0.09350694414186533  -0.13144717409187917    0.2371162409677045
  0.05410001714000784    0.5150487725821291 -0.002805359282588113 -0.007746780386158846   0.08139731549055133  -0.12574701429575189   0.24076792444180314
-0.050494589339011436    0.3955673960961693  -0.01883382874134619 -0.006962240076752019   0.06720866356102478  -0.11994296464320499   0.24450707041976602
 0.021800837182672773   -0.1094220980894337  -0.03684170593010866 -0.006264091455506663   0.05186474315507122  -0.11413557605024416   0.24838771518758745
-0.003908554305674056  -0.45949925695115584  -0.04329983688176778 -0.005183291406651851   0.03652035110133495  -0.10834191747510111   0.25245241933590146
  0.00850949220554937  -0.34380984810153103 -0.034556683654262836 -0.004410990308122999  0.022140189869621362  -0.10254963069871403   0.25666361435180524
 0.003742640623976312  -0.07524625597497818  -0.02090025563709415 -0.006376513724804123  0.008074967774658022  -0.09643886733547206   0.26097649973651893
 0.008635138961848001   0.07018529037090576 -0.019572783118358025 -0.012742031340645811  -0.00795016520588315  -0.08988586860700676    0.2654065612479356
-0.023107159543099068   0.09239844381172341  -0.04781367139955602 -0.019130504246012467  -0.02701852561857329   -0.0829222680866193    0.2699893725755285
   0.0147658937477779   0.04732571492989243  -0.09800552863640179 -0.022561568568235917 -0.048801505752298004  -0.07536123210352291   0.27471707021852954
-0.006913105046812251   0.02257220956018501   -0.1232149601701624 -0.023053776531589052  -0.07196294867642843  -0.06703513610701894   0.27954608453825897
-0.009185534000476694   0.03929280084330393  -0.06429316873966066 -0.020380818599157906  -0.09459568022431157  -0.05792866438599271    0.2844271044919447
0.0036675730002927454   0.04656555021918866   0.10202076779031194  -0.01533850114644305  -0.11609382072908493 -0.048237397706906174   0.28932308286699454
 0.018260126564043272  0.031642796285360805   0.34071518877220835 -0.006390435628995186  -0.13670689527346444  -0.03835938838045937    0.2942483611578123
-0.010828595280460526 0.0000216764066766385    0.5238033797810926  0.007734907950682556   -0.1561794216810859  -0.02869455140386116    0.2992333437844927
-0.002892589373605779  -0.02618534891925009    0.5196800440384456  0.025845348615440546   -0.1734981040487527 -0.019158167125590105   0.30428997667427504
 0.004070578659131938 -0.026222561954611458   0.30078029157480396   0.04253724967224204   -0.1870293549884029 -0.009523495063818626   0.30941658457902954
-0.011682732886930287 -0.019768762901614494  -0.07845049792995246   0.05424722493626574   -0.1951322122044032 0.0002279397499227908   0.31458811543893705
  0.01044277611828412 -0.008120186951060756   -0.4414432006052463  0.059945505279057315  -0.19757863473572349  0.010104348038823418   0.31974766163133744
  -0.0033348781559869  0.018280405890746802    -0.618996558318029   0.05852773723391562  -0.19537454862706738   0.02003013881815657    0.3248211945713358
 0.005985790314848614  0.025161076963710206    -0.585991724786086   0.05126016239328249  -0.18957482870467152  0.030040936697495003   0.32974732757063535
 -0.00008954697561963 0.0011312264539802136  -0.37832468532191244  0.037895106715669515   -0.1809522269902684   0.04030745606363199    0.3344859371781127
-0.005566433758251159 -0.016719041258380852  -0.11689386316810249   0.01854104903342326  -0.16965045110444357   0.05065113203153868    0.3390132277482169
-0.008856408358308393 -0.016194239371953585   0.07942958872632583 -0.003477281232409899   -0.1552492846276088  0.060429986158126885    0.3432935380878942
 0.011904563085307362 -0.007132223478766523   0.19828330977116307  -0.02352271237227536  -0.13771786750999954   0.06913787204122458    0.3472791794712964
 0.005004413165262154  0.006659594260244428   0.23940061829675746  -0.03937225214970827  -0.11730217098223626   0.07651290840616524   0.35099644301318567
0.0020782100901280166  0.013993029890122143    0.2236774878095562  -0.05150587200495173  -0.09488174971604914    0.0824166649278651   0.35448752537444866
-0.022704795950913452  0.008194983737396171   0.18478211985448958  -0.06037791848012364  -0.07151956193123886   0.08698858057296131    0.3578112071520777
 0.006038707630614121  -0.00577210448592657   0.12180051495072766   -0.0674433529193905  -0.04761633552441481   0.09028720235882816    0.3610583392272959
 0.023861910802904725  -0.01564301738888359   0.04936230535573809  -0.07210850638023764  -0.02349387931631894   0.09231393963105118   0.36423573671949266
-0.008512683399274853 -0.005200282179797046 -0.006084265163077291  -0.06915960790599189 0.0004542796088088628    0.0934264919050936    0.3672479834268312
 -0.02961429159544878  0.015879812968525128 -0.036173775074028525 -0.057215865123190934  0.023385277652845204   0.09397844074336269   0.36996820290835414
    0.026294703704338  0.015167149687371182  -0.03990606056658606  -0.03890635182306457   0.04374294279135134   0.09409075300535648   0.37232078723128964
-0.003885843942628871 -0.010794236858684858 -0.026274713170474123 -0.014973846442968793    0.0603727022464001   0.09387688583058841   0.37433320863089065
 0.006411670668360656 -0.020739541080320972  -0.01498113016754121   0.01766946499471542   0.07324970197648786   0.09346926254048436    0.3761016780086871
-0.002990514097022313 0.0061189880327422105 -0.013749330606638351   0.06279858337065487   0.08277762127160719     0.092849893425393    0.3777083633753392
-0.011460384898654946  0.017933252453841936  -0.01563554406623692   0.12145715328937573   0.08942414819909457   0.09192120352606775    0.3791947712422546
 0.005348161870709217 -0.012554197965033112  -0.01718771773364217   0.18724797570205481    0.0935403571840212   0.09054404996329525    0.3805836472375721
 0.006290903617148354 -0.022264645853484033 -0.013858523952184988     0.238972565958725   0.09532182170670145    0.0885880573931995    0.3818953182675931
-0.002629339126505283  0.009226635836375535 -0.004878518468545173   0.26103960628319056   0.09491323763362894    0.0863637115122691    0.3831707764306621
-0.002042192219341158  0.024819115151449786 0.0005709523569834632    0.2535056165548662   0.09253038713425335   0.08420634811287195   0.38445901312646713
-0.001106528853760922  0.009096726768371463 0.0016654687880580457   0.21856203172503294   0.08814364373524601   0.08203085781504493   0.38574296415496206
0.0013426451174709496  -0.01094678525095541 0.0002840269657535428   0.15603205304309853   0.08194184456331283   0.07964770544875205    0.3869747605130613
 0.008695083294733123  -0.01571949439658183 -0.003274795773801624   0.06368745650230512   0.07419008054374968   0.07697646748997104   0.38807537814151005
-0.010349310412386063  -0.00114012496288269 -0.003822727060116347 -0.058447699242805365   0.06513371323664247   0.07427510879967948    0.3889397164523366
 0.002245201627613845  0.010449954082322663 -0.003257537903890072  -0.19738626188244746    0.0554157649023068   0.07189707371496622     0.389586006405201
0.0010578330148241569  0.004999373701486256 -0.004603802366936666  -0.31886182526948625  0.045312872127966315   0.06979199637354859    0.3901865120403848
-0.007427069035077519 -0.001500189712835574 -0.005887978985462561   -0.3954168393166351   0.03506037680691622   0.06727094915272439   0.39098297445028163
 0.012578369201204644  0.002185539951113105 -0.009319528899299795  -0.42378191217963435  0.025424131964432557   0.06362647768773161    0.3921684500591223
-0.004557336015289926  0.008310560322450294 -0.011545099964295619   -0.4085609001167341  0.017041303823590422  0.058612710559366385   0.39377299938058263
-0.000916734342515301  0.004088758395185167 -0.008028115721701846  -0.35736037991210406  0.009908806201566558  0.052224096041305054   0.39573327223567917
-0.011241563490285942 -0.006556985664968779 -0.003085853399977009  -0.27484686554428384  0.004029863748257388  0.044630489396494784     0.397997802841483
 0.010123488421310082 -0.009236142868660344  0.005133665368237575  -0.16231693378882395 -0.000792455435303239   0.03595633615489049    0.4005320575386891
 0.008447316576645596 -0.005099361589608137  0.014132027581416236  -0.03202224940254021  -0.00502124833283708  0.026242953609141053    0.4032948798608852
-0.003302211975623625 0.0009898485210517519  0.016504192270812387   0.08812920583996021 -0.008675073680694631   0.01575671248688958   0.40623142589262146
-0.013201526722068552 0.0051029477925098495  0.016926254148457564   0.17519271950994045 -0.011550370480756914 0.0050463743203901824    0.4092502849306167
 0.005354869667633655 -0.002716969949395933  0.014628442110804465   0.22393797892375594  -0.01340629738013337  -0.00548809319847165   0.41225630494140103
  0.01039331945602398  -0.01343862331556405  0.010256933974388392   0.23841839080356741 -0.013901897458763888 -0.015493056608586204    0.4152206899324421
-0.012251300443039237 -0.005010464316924132  0.011389447809832427   0.22897890415196498 -0.012832569933283564 -0.024660904306421032    0.4181478275609477
0.0014208048016324075  0.015479289954057746  0.014026310896681021   0.20344613012616275  -0.01004739251244921 -0.032995478489760505   0.42108351437350494
 0.009089952555359888  0.016195918934742332  0.016303941772763966   0.16380993888330264  -0.00565973036683241   -0.0405247981680746   0.42409039441768653
 -0.00988481667531455 -0.007052074182359256  0.018029098745229868   0.11559056860961042 -0.000181468916598225  -0.04730885039263109     0.427144227816564
 0.011198952855028149 -0.017639929134091695  0.013348017474293369   0.06824706179752843  0.005812261096818504  -0.05360546327923552    0.4301596723723888
-0.013996113993907027 -0.002610849063140946  0.004880180905627564  0.029821302058773636  0.011800015302706893  -0.05952987595039819   0.43306133434777533
 0.006755763756320882  0.005324883665332103 -0.004699391838739485  0.004302497678796362  0.017436524700575926  -0.06496725641357311    0.4358005412709531
 0.004790311542394135 -0.000698720006275043 -0.014909028955520716 -0.009554499984475717   0.02235465714002078  -0.06988438219702393   0.43838182540763954
0.0007586804968106528 0.0017771026958976286  -0.02102634160803947 -0.017247794017302552  0.026219415900266642  -0.07424473883954259    0.4408130669840483
-0.002997561292072393  0.007111358301960953 -0.024172090321794674 -0.022910022072311683  0.028541446401189503  -0.07788053415871785     0.443052138568798
-0.020634748163139656 0.0037432400959207203 -0.024900540470626065 -0.028312213259921004  0.029466725303034434  -0.08059311761134437     0.445051829907991
  0.01409559727105501 -0.001350863048439614 -0.022163148136040894 -0.033946148089961485  0.030111926201642096  -0.08221831387358244    0.4468222199321002
  0.01927388769439221 -0.001666827209284108  -0.01829268032711779  -0.03756909903448243     0.031591492151002  -0.08279766340493593   0.44840316128056545
-0.006980896443166976  0.004112416936212601 -0.012256048935577933 -0.037675011382108374   0.03450199410473133    -0.082813060355071   0.44983183782576125
 -0.01446340086399097  0.005761633571362532 -0.005500898213683651  -0.03581867413496492   0.03820224447785348  -0.08262758866242498   0.45112843779871353
 0.004274481516869214 -0.008542106730398177 -0.001540615746782388  -0.03235039731980208  0.041851120237556674  -0.08225756364137346    0.4523104748280896
-0.006127100880504659 -0.024977422471613196 -0.000381042432714952 -0.026265552661327365    0.0446895842992079  -0.08168120383103937    0.4534059235401893
 0.018583016672397347 -0.011628226564902918 -0.002054156490278472 -0.017365529448867274   0.04609748614784727  -0.08095064239776868     0.454424801950422
-0.012205062276739478  0.027370276477044257   -0.0048589362950065  -0.00449429674882654  0.046115929003663306   -0.0804831040273302   0.45538798402687114
0.0026142577278633235   0.03618119742668369 -0.003806197960450498  0.011941047069641992  0.044733085024643925  -0.08054835834662998    0.4562955109886137
 0.001053762558222815 -0.000890632034706514 0.0007855783704106278   0.02844832495830604  0.042510063473870555  -0.08067632017506848    0.4570980840443134
-0.004130652877176146  -0.02861983928522931 0.0061792567955952955  0.042552290139355214   0.04011066284787221  -0.07978438078278947    0.4577443280488871
-0.000103582231958544 -0.017693316511647864  0.012182185931294161    0.0545602129461421   0.03754846005760028   -0.0769236450498551    0.4581858128524633
0.0022311656983435672  0.006864347287933175  0.013853194567314143   0.06431490759883948   0.03516538088806313   -0.0717517913919053   0.45839171392265493
 0.008798787407722618   0.01582893828855546  0.012033448876801356   0.07093433628662782  0.034307249928035494  -0.06436033499624208   0.45837944188898005
-0.011961085952300918  0.005465471845707937  0.008983901512235165   0.07453402134447915  0.036552110318503236 -0.055092625540158785    0.4582165000561667
-0.001577198018568277 -0.004740958448535212 0.0020507839929110178   0.07404791353781853   0.04187809422721581  -0.04427751619560898   0.45798002432401924
 0.008379595134606187 -0.006195256307407148 -0.004492452585178924   0.06897458579782301   0.04824629396605327  -0.03224260158205971   0.45773331133185713
-0.004073323407596002 -0.004992937126754731 -0.009693186905971502   0.06032463015297125    0.0515668404904905 -0.019376787650254617   0.45752208108152453
0.0013657145608302022 0.0018732293895924457 -0.010703671694706296  0.048551877928835585   0.04853169670227008 -0.006140803210273289    0.4573609545970006
-0.004278776177934873   0.00978273023760254 -0.003252938232091506  0.033325496378934394  0.039582928786905426  0.007107809089560178    0.4572726874638449
 0.012342253513646276 0.0026876053641661513  0.006863702695540309  0.015337039627898497  0.026054961387830457  0.020030475218304755    0.4572630524445528
