        D_1                  D_2                  D_3                  D_4                  D_5                  D_6                  S_6   
 0.02693683647411128  0.01799704853284468  0.02211658641791835  0.00538860680670072 -0.07208341475626465  0.11762243169129645 -0.22275109516660677
 0.02227072053443746  0.02407300433139528  0.02438085491341595  0.01192587720447598 -0.06402588361989042  0.11137992791551080 -0.22314050127934500
 0.01057143634721559  0.03842570707781249  0.02494720327653048  0.01933619018392404 -0.05630852845249464  0.10505893562324149 -0.22353094405622942
-0.02142843865278440  0.02188916969340083  0.03185027584089270  0.02348826389139810 -0.04732161928535732  0.09903086646229979 -0.22391751794984965
 0.01638968634721559  0.00070780136538216  0.04509007260650258  0.02438209832689815 -0.03706515611847844  0.09329572043268564 -0.22430022296020558
-0.01561018865278439 -0.00313882188852704  0.03468089269950482  0.03743584726862142 -0.03154673298158728  0.08646737039424485 -0.22469736683947228
 0.00232430585576434 -0.01050498251327393  0.02609377391243667  0.04723135693837067 -0.02475875584495459  0.07993194348713160 -0.22509064183547467
 0.00761050115278441 -0.00473605085091717  0.01070663045129534  0.06918678111434315 -0.02270881873830960  0.07230331257119174 -0.22549835570038780
-0.00125974220297995  0.00403811253979898 -0.01148053768391918  0.10330211979653882 -0.02539692166165231  0.06358147764642522 -0.22592050843421150
-0.00072731250000000  0.00159659843175985 -0.00828966824277058  0.09203603972581567 -0.01040241846478574  0.05893953562563770 -0.22628877457565683
-0.00000000000000000 -0.00055197027470082 -0.00651310878195534  0.08013009542249401  0.00586163873182236  0.05459051673617773 -0.22665317183383785
 0.00000000000000000 -0.00379382610369595  0.00054172738311573  0.07061215694517602  0.01738765589844277  0.04914829383789113 -0.22703200796092960
 0.00377901010258887 -0.01263529165781439  0.01287484025244264  0.06348222429386165  0.02417563303507546  0.04261286693077788 -0.22742528295693198
-0.00654543749999999 -0.00057872921521585  0.00550915628507957  0.04744013257113118  0.04864621629191745  0.04015733292764362 -0.22776467136055590
 0.00863673759184231  0.02123905977047142  0.00124230016191797  0.03378604667440435  0.06837875951877173  0.03660859491568272 -0.22811849863309042
-0.01090893749999998  0.00662745535316166 -0.01458953891971266  0.01121980170626142  0.10579390886583528  0.03713974980770080 -0.22841843931324646
 0.00173962845835320 -0.01824563370102533 -0.04198636095981231 -0.02025860233329763  0.16089166433310810  0.04175079760369783 -0.22866449340102388
 0.00436393750000001 -0.00482234072929906 -0.02622207901023733 -0.01847637591319588  0.14999703534953152  0.03113547779260563 -0.22911165498940486
 0.00131167739741112  0.01670998587790771 -0.01355339135264377 -0.01668783339473552  0.13946142805374112  0.02081308111284097 -0.22955494769452153
-0.00383107029702005  0.00797898695721630  0.01066821148224468 -0.01492286287625507  0.12758593357811357  0.00939748042424969 -0.23001267926854901
-0.00305161835576435 -0.00412002471890253  0.04644272949442801 -0.01318146435775453  0.11437055192264880 -0.00311132427316823 -0.23048484971148708
 0.00741502684941340 -0.00364944167122619  0.03910118108941322 -0.01135209393769296  0.10615569729874655 -0.01154023606660717 -0.23090313356204667
-0.00329893634721560 -0.00213973234285700  0.03110021686306669 -0.00954629551761130  0.09660095549500711 -0.02106235186887275 -0.23133585628151693
 0.00145492075317548 -0.00450809508951363  0.02556022598524489 -0.00765252519596862  0.09204674072283012 -0.02650457476715936 -0.23171469240860865
-0.00067514405239334 -0.01167678770821611  0.02248120845594780 -0.00567078297276491  0.09249305298221555 -0.02786690476146699 -0.23203964194332174
-0.00038979460039107 -0.00093040535135286  0.01021771335388356 -0.00401735635582539  0.07427714429518839 -0.04445560236286389 -0.23256569897863844
-0.00814263510258890  0.01595779645044583  0.00199784928886896 -0.00206366020909638  0.05472134842832405 -0.06213750397308742 -0.23310619488286577
 0.01410345770517779  0.00992441603283100 -0.02131305125347733 -0.00123058520350657  0.04016607959302217 -0.07573951267933197 -0.23359280419471457
 0.00833739289960892  0.00407154431910248 -0.05971498827315532 -0.00151813133905596  0.03061133778928271 -0.08526162848159752 -0.23402552691418477
-0.02316803810478668 -0.00245499504873820 -0.04179641042055617  0.00237653756016197  0.00239437503913063 -0.11001011189095239 -0.23465935713425853
 0.00707780470297992 -0.01597332015518103 -0.02847000602829779  0.00515058531824069 -0.02082206067945900 -0.13067870239632826 -0.23523930076195368
 0.00072720424682457 -0.00339794564952517  0.00199462303512176  0.01210684811108674 -0.06270071734446127 -0.16657366050879340 -0.23602035189025233
-0.00329893634721563  0.01962222534219225  0.04959747676970248  0.02324532593870009 -0.12324159495587614 -0.21769498622834770 -0.23700251051915436
 0.00727292075317551  0.00366188517321108  0.03323960527997928  0.01877556476838339 -0.11413411581320299 -0.21199073442352412 -0.23723412573802122
 0.00285708155239329 -0.02354337559413869  0.02033370549731366  0.01403234493723012 -0.10528631217716124 -0.20624957214201240 -0.23746187207362380
-0.00920793200854870 -0.00878202136129904 -0.00545512808238117  0.01030968672208862 -0.09546938635688970 -0.20064616163483195 -0.23770405727813704
 0.00416882144980443  0.01485700649227488 -0.04412689545910522  0.00760759012295887 -0.08468333835238831 -0.19518050290198270 -0.23796068135156090
-0.00218164174682449  0.00536410534025457 -0.03471889935477000  0.00109670572061864 -0.07751410357817476 -0.18920074754849658 -0.23816341883260636
 0.00761025115278435 -0.00967047130970599 -0.02611307700573207 -0.00439361706570983 -0.06937574661973140 -0.18335874396934163 -0.23838059518256247
-0.01105180585576428 -0.00402323344229399 -0.01451350144542634 -0.01369272765524880 -0.06485420289157581 -0.17700264376954980 -0.23854388494014000
 0.00635042970297991  0.00433257646703995  0.00007982732614719 -0.02680062604799825 -0.06394947239370802 -0.17013244694912097 -0.23865328810533895
-0.00383094529702005  0.00257985789996063  0.00350031700794682 -0.02569393484391751 -0.04954661115891885 -0.16518088483690870 -0.23896379877114154
 0.00964932029702004  0.00118930583873504  0.00563841486246786 -0.02487359045343988 -0.03417462773989986 -0.16036707449902765 -0.23928874830585473
-0.01323357260258884 -0.00155287002313638  0.01256246417160365 -0.02298458520600995 -0.02241945755116868 -0.15503916754050961 -0.23955981124818937
-0.00019492855019559 -0.00811336513130476  0.02427246493535417 -0.02002691910162774 -0.01428110059272529 -0.14919716396135466 -0.23977698759814545
 0.00906487615278448 -0.00042369881277475  0.01812105170792432 -0.02105754961145157  0.00735538710263948 -0.14527379509041620 -0.24019527144870503
-0.01197383039960898  0.01503680536535902  0.01320448103658401 -0.02101951926432311  0.02537506156771644 -0.14083632959884080 -0.24055966870688600
 0.01648002800219783  0.00149614783407178  0.00367941520656926 -0.02496978553140070  0.05689286676971481 -0.13831749881548186 -0.24112517346567050
 0.00794783155239331 -0.02438505160082524 -0.01045414578211992 -0.03290834841268430  0.10190880270863453 -0.13771730274033930 -0.24189178572505832
-0.02462283385796212 -0.00421072165851782 -0.00738856869220091 -0.02596238569409606  0.09654902893015654 -0.12995666445296800 -0.24190785457441100
 0.00097415949780220  0.02788365899251138 -0.00512981053216769 -0.01840426047411719  0.09126639274857405 -0.12233377793992783 -0.24193836229267437
 0.01186981826392201  0.01549180476979351  0.00014003686670769 -0.01313075681181656  0.08569587513620379 -0.11419679480625080 -0.24191498341855920
 0.01255875779702003  0.00066310031670579  0.00842097350442524 -0.01014187470719415  0.07983747609304577 -0.10554571505193683 -0.24183771795206538
-0.02700018316133309 -0.00507115526620573  0.00546437211665993  0.00137333112675057  0.07505346517614328 -0.09881327000583930 -0.24196155998617513
 0.01012983155239330 -0.01653061263971631  0.00336853662286454  0.01060391540301705  0.06998157282845300 -0.09156672833910483 -0.24203151542790627
-0.00164944529702004 -0.00662332604712685 -0.00193972092064904  0.02836082340860585  0.06598406860701826 -0.08623882138058683 -0.24230257837024094
-0.00048009050219781  0.00933978130418719 -0.01046040051388080  0.05464405514351695  0.06306095251183896 -0.08282954913028524 -0.24277474881317900
 0.00431133155239334  0.00270225790241080 -0.00699215780220974  0.04910661351881705  0.05612816534242548 -0.07225983466775485 -0.24249637584608180
 0.00125969644980446 -0.00733822072712332 -0.00399800547700796  0.04337317288329647  0.04890749674222421 -0.06117602358458751 -0.24216411628660600
-0.00431139405239333 -0.00467869755078346  0.00076547625787716  0.03837121051439184  0.04276121626827847 -0.05201084720963661 -0.24203296422773374
-0.01090906250000001 -0.00244805002276959  0.00729828740244561  0.03410072641210316  0.03768932392058821 -0.04476430554290216 -0.24210291966946484
 0.02123351010258888  0.00138318321492595  0.00722787129475001  0.02710032825417135  0.02860776049866370 -0.03035732166393884 -0.24142233170116073
-0.01963631250000001  0.00952018863575498  0.00635995402504714  0.02083140836285547  0.02060058520299469 -0.01786897249319196 -0.24094285123346000
 0.02123351010258887  0.00158783350331308  0.00846835161105061  0.01183257441589645  0.00858373883309142  0.00177981888978379 -0.23971282735572397
-0.00494823989741114 -0.01325866437463313  0.01355306405276042  0.00010382641329426 -0.00744277861104611  0.02858905248498841 -0.23773226006795253
-0.00654543749999998 -0.00230123023557350  0.00753001823365213 -0.00143674363335125 -0.00850499988450211  0.02867515193949400 -0.23855275891971908
 0.01722128998925344  0.01684373962993783  0.00302063827737539 -0.00321893835626025 -0.00949990558202882  0.02877412382250211 -0.23936794778077958
-0.02811627800219780  0.00543241017554603 -0.00713781958467129 -0.00409937751099157 -0.01074603642906439  0.02882505514832198 -0.24020295379694276
-0.00248111143905791 -0.01370424863404476 -0.02294535535248790 -0.00407806109754521 -0.01224339242560882  0.02882794591695361 -0.24105777696820863
 0.02196065184941338 -0.00400958578482961 -0.01767024536005632 -0.00742214228054608 -0.01280316340004710  0.02901012648583566 -0.24183864150976966
-0.00668801010258888  0.01238687724280919 -0.01313418301195265 -0.00986446789536926 -0.01361415952399424  0.02914426649752946 -0.24263932320643342
 0.00072718750000003  0.00377188150239673 -0.00583995730600308 -0.01567219110663967 -0.01348757062583523  0.02945769630947368 -0.24336604627339223
 0.00179201789960893 -0.01071234624849598  0.00421243175779240 -0.02484531191435729 -0.01242339670557006  0.02995041592166830 -0.24401881071064602
-0.00523340184941340 -0.00329230193486676  0.00397121503453219 -0.02145859790446372 -0.01485833772422065  0.02977401689004953 -0.24494759251161690
-0.00363631250000000  0.00749091580489742  0.00339003124389541 -0.01776251648996442 -0.01754450389238009  0.02954957730124253 -0.24589619146769050
 0.00920727800219781  0.00572259944366043  0.00407762182160819 -0.01522100994765943 -0.01929308503843338  0.02950442751268594 -0.24677083179405923
 0.00713016065058657  0.00593395798801570  0.00603398676767053 -0.01383407827754877 -0.02010408116238052  0.02963856752437975 -0.24757151349072298
-0.01759726010258882 -0.00124293079776847  0.00325522130771119 -0.00813821452326655 -0.02441419222524341  0.02910358889226017 -0.24864821255110375
 0.00833776789960888 -0.01367803795378099  0.00158196688273977 -0.00359692564117865 -0.02778671826600014  0.02874790006039099 -0.24965095298177956
-0.00436399999999994 -0.00648920699480930 -0.00421711089313459  0.00525329532508080 -0.03465835924567262  0.02772309258470842 -0.25092971077617243
 0.00727306249999995  0.00389593577773097 -0.01414201201991187  0.01841244837551181 -0.04502911516426082  0.02602916646521245 -0.25248448593428213
-0.00833787615278436  0.00235228046520069 -0.00866913077806534  0.01549044796145091 -0.04234099634929223  0.02683242512071966 -0.25300915026722890
 0.00000024999999996  0.00222464228367711 -0.00479066073409366  0.01221515973066384 -0.03972840274400712  0.02758764321903863 -0.25355363175527845
 0.00581800000000004 -0.00318764377515141  0.00503823290850370  0.01025835958159392 -0.03683394521893093  0.02852215111760800 -0.25402415461362300
-0.01202610710039109 -0.01601409676367814  0.02081755014972674  0.00962004751424115 -0.03365762377406366  0.02963594881642777 -0.25442071884226250
 0.01812975230556882 -0.00117050207477417  0.01438958419432191  0.00406107093674596 -0.03153323279867721  0.03008062787143417 -0.25509330043461920
-0.01046722445200229  0.02235825862671721  0.00962968795839707 -0.00017941755903209 -0.02912697790349968  0.03070459672669097 -0.25569192339727087
 0.00649333155239336  0.01347353849706200 -0.00135552922119428 -0.00934057056495256 -0.02777265347780295  0.03065944693813438 -0.25656656372363956
 0.01376589405239331  0.00414686380262256 -0.01856606734445213 -0.02342238808101545 -0.02747025952158704  0.02994517850576438 -0.25771722141372516
-0.02966147791035545 -0.00353041400140517 -0.01254339141252395 -0.01914003563822580 -0.02324200760723896  0.03172809484839756 -0.25783776827864774
 0.00915521780776658 -0.02269758151440312 -0.00851386467707472 -0.01433582432060430 -0.01873189177309980  0.03369030099128113 -0.25788435651386530
 0.00159719760258890  0.00101610313983860  0.00295419612669901 -0.01147921683823599 -0.01527370640844146  0.03498338849035133 -0.25820696211280003
 0.00132587688446675  0.04885822455096455  0.02186079099879724 -0.01057021319112085 -0.01286745151326392  0.03560735734560812 -0.25880558507545165
-0.00058461489741112  0.00665179407818610  0.01300639879407641 -0.00239265307782484 -0.00653533865995421  0.03872851097586807 -0.25837409721294013
-0.01441675188446678 -0.05761786421991596  0.00717254993212135  0.00383730320021800 -0.00125515627612531  0.04118054596231463 -0.25821862671414564
 0.02559713510258888 -0.03954643529494298 -0.00993412015149951  0.01733581594444172  0.00795088406583576  0.04612976572376434 -0.25703304539018800
 0.03403911489741110 -0.02826098798055020 -0.03831361145678616  0.03810288515484633  0.02108278236592901  0.05357617026021720 -0.25481735324106713
-0.07470010521592425  0.00835008748375601 -0.02462236121817540  0.03174333233578058  0.01956317930297437  0.05170295434047086 -0.25644608702888194
 0.00810421189521331  0.06580048071884062 -0.01369050175846640  0.02536934742550810  0.01793470820249475  0.04980339148820923 -0.25809463797179955
 0.02975228607168864  0.04547748123830727  0.00753954428604106  0.01904922381287856  0.01671253814937864  0.04800215672671813 -0.25966923028501220
-0.01318118316133318  0.03225938951699065  0.03906777691534698  0.01278296149789193  0.01589666914362603  0.04629925005599751 -0.26116986396851990
 0.01119391195200230 -0.00747457894481321  0.03216265398436083  0.00631568608354033  0.01356446398594438  0.04422937795471014 -0.26294651501574460
 0.02660982606094205 -0.07366291189852463  0.02513062748419600 -0.00009772803316835  0.01163855987562623  0.04225783394419327 -0.26464920743326437
-0.05481657071812205 -0.04112221248649100  0.01857221155186783 -0.00671215524924199  0.00819631961337904  0.03991932450310962 -0.26662791721450120
-0.00218181250000001 -0.00111994659390252  0.01248740618737632 -0.01352759556468060  0.00323774319920279  0.03721384963145918 -0.26888264435945497
 0.03634955051294434  0.01103537408920235  0.00463506212071684 -0.01959284478030227  0.00393821034537923  0.03587790839130537 -0.27010726067924570
-0.00610345770517777  0.03234227670995633 -0.00006575572452492 -0.02737341869176326  0.00504497853891917  0.03464029524192205 -0.27125791836933140
-0.00688300115278435  0.01949501056977421 -0.01652822954948317 -0.02875231368687424  0.00463541058053006  0.03303571666197196 -0.27268459342313417
 0.00140214405239331  0.00510235178638701 -0.04475235935415790 -0.02372952976563518  0.00270950647021191  0.03106417265145508 -0.27438728584065390
-0.00086958934941338 -0.00352282313491565 -0.02908139146138441 -0.04259813681395691  0.00644264592024644  0.03046216227243482 -0.27505986743301053
 0.00557101125537325 -0.02025154910077975 -0.01826256650078004 -0.05506506494592860  0.00865944921835192  0.02949318646284776 -0.27600846638908416
-0.00886999335576432 -0.00673741084661272  0.01066470240826572 -0.09142338404746106  0.01653529607681007  0.02989374428475733 -0.27592695451999460
-0.00009052915498224  0.01618951759974144  0.05770041526575286 -0.15167309411855426  0.03007018649562090  0.03166383573816348 -0.27481533182574180
 0.00576612730556884  0.00398743480786717  0.03715449526164359 -0.12275891922775446  0.02248523882495007  0.02832275809615001 -0.27754813506842480
-0.00010439939521336 -0.02813240741730918  0.02054103442328202 -0.09013097126775338  0.01545371479349010  0.02508000854490704 -0.28020697968140273
-0.00251950115278437  0.01408184053553211 -0.01074856382033994 -0.07136301308979237  0.00635678562238555  0.02147029356309729 -0.28314184165809780
-0.00009040415498223  0.10596940485422893 -0.05671429946922227 -0.06645504469387142 -0.00480554868836359  0.01749361315072076 -0.28635272099850984
 0.00129791541035550  0.01247362871511023 -0.04790794466281079 -0.00982089023899143 -0.00825968607974525  0.01488646636984084 -0.28853348951375870
 0.05949361489741110 -0.08730045944948514 -0.03815328003667205  0.03295327443384850 -0.01377922861077149  0.01191235415839414 -0.29099027539272454
-0.10367255208683075 -0.16364356814923095 -0.03193775583907185  0.12745362516564750 -0.01159057422243025  0.01030777557844404 -0.29241695044652730
 0.05953579225659347 -0.41520207518309060 -0.02926137207001018  0.27368016195640550 -0.00169372291472153  0.01007273062999055 -0.29281351467516680
-0.03906315212176496 -0.01284781336561791 -0.01337673640652162  0.22686194429336737 -0.02056425414483815  0.00472651658611742 -0.29705450484074210
-0.13415102205141566  0.59060507576640930 -0.00773722405533428  0.17461453611329664 -0.04150019051459935 -0.00098666288832250 -0.30157151237003430
 0.26643822552832896  0.44354767042816090  0.03613760902716961  0.14262914278676270 -0.05472792996499308 -0.00533030873126581 -0.30505840907416340
-0.01653957382766622  0.42272613506477164  0.11824776284099005  0.13090576431376552 -0.06024747249601933 -0.00830442094271251 -0.30751519495312920
-0.13095268661956702 -0.06921408078245106  0.05766175704184550  0.04356351694365379 -0.09453439756487092 -0.01638970224957886 -0.31381640676903080
 0.02934579163543268 -0.90247604072114820  0.02172604805771079 -0.02351671557292119 -0.12111312571435501 -0.02310544992494860 -0.31908750775976913
 0.00551518581559203 -0.46190790998244025 -0.10620582106169402 -0.16621581698661073 -0.17645923640166444 -0.03493236669573799 -0.32820303468744305
-0.00424909311834705  0.13502290047293095 -0.32613385031636890 -0.38453378729741483 -0.26057272962679910 -0.05187045256194701 -0.34116298755205254
 0.01266321969223346  0.14840024581809552 -0.20272753584497327 -0.32063829687329737 -0.23732488962000010 -0.04973339567797408 -0.33977534749408295
 0.00350743938446667  0.21234643842805315 -0.10850988609940619 -0.25148281195235490 -0.21468436493758786 -0.04756403765600921 -0.33838577716716095
-0.01309062499999989  0.08756712376561257  0.09464134340804672 -0.20195789374109605 -0.18977730860834874 -0.04551522912217249 -0.33700341070204126
-0.04131211489741117 -0.11703155673298225  0.40672615267738550 -0.17206354223952078 -0.16260372063228273 -0.04358697007646392 -0.33562824809872380
 0.07856987772667082 -0.02374030850312205  0.31226530762500940 -0.06890691839603610 -0.14388894391913737 -0.04120881421623468 -0.33422620031714945
-0.03303677293184860  0.13090222106986316  0.23088761292489696  0.01461913873776498 -0.12290763555916512 -0.03895120784413358 -0.33283135639737740
 0.00968741425757109  0.05657865156085333  0.10068293638707387  0.17140746821347547 -0.11038513846211345 -0.03624370465751180 -0.33140962729934814
-0.00868896853944900 -0.05455160919577280 -0.07834872198845991  0.40145807003109530 -0.10632145262798234 -0.03308630465636932 -0.32996101302306170
 0.00170161374462674 -0.02831742815779422 -0.07515560336541464  0.35809014919076120 -0.07068905338899580 -0.03160794242518144 -0.32861273559800150
-0.00677860175757109  0.01537761545272734 -0.07080541621208350  0.31283631673697530 -0.03279012250318239 -0.03025012968212171 -0.32727166203474367
 0.00862295885796216 -0.00609216720145930 -0.07077346760161826  0.27462080224317537 -0.00335000288028956 -0.02844242012454130 -0.32590370329322880
 0.02873929936015994 -0.05028777988928766 -0.07505975753401890  0.24344360570936116  0.01763130547968269 -0.02618481375244020 -0.32450885937345675
-0.05559617666572873 -0.00966944024739035 -0.06323016182524181  0.18599904894905533  0.07018132724451041 -0.02560624515029369 -0.32321435230491090
 0.01344232563984004  0.05300547152335602 -0.05134240526661440  0.13559281014873528  0.11427253774641755 -0.02457777973362649 -0.32189296005810786
 0.01022015646055102  0.03336413546843003 -0.03967170795463972  0.05891921112192353  0.18993246165318012 -0.02522835208691387 -0.32067190466253100
-0.02128591180337101  0.01542877918760678 -0.02821806988931777 -0.04402174813137997  0.29716109896479810 -0.02755796221015584 -0.31955118611818020
 0.03572694990815768 -0.00887338028685278 -0.01595435568723519 -0.04893158443870239  0.28657369391991494 -0.02362131806810016 -0.31805600534718204
-0.00416890069662901 -0.04017356151381639 -0.00318183096602468 -0.05485595154856174  0.27579849657719063 -0.01980522341417263 -0.31656802843798604
-0.01506373021592427 -0.04535677000796272  0.00769178704637492 -0.05699403815750963  0.26572414963127930 -0.01553923194572441 -0.31505316635053310
-0.02028706207889797 -0.08254948234012195  0.01666649834996361 -0.05534584426554602  0.25635065308218086 -0.01082334366275551 -0.31351141908482283
 0.04101227020517773 -0.00028110002374603  0.03272802596966802 -0.06782824157469140  0.24436154724367184 -0.00778649314974120 -0.31207000867033890
-0.02310174492965078  0.14445506387774493  0.03695420653265936 -0.07652435838292529  0.23307329180197570 -0.00429974582220619 -0.31060171307759770
 0.01554363321812209  0.05605829306747104  0.08535050363651461 -0.09935106639226818  0.21916942707086906 -0.00249203626462578 -0.30923375433608280
 0.04624613856094206 -0.08494814636701364  0.17791691728123380 -0.13630836560272000  0.20264995305035180 -0.00236336447699995 -0.30796613244579400
-0.09350458082071090 -0.02961262952658160  0.10563821181921035 -0.12052958050964743  0.19589206579066390  0.00403156157592354 -0.30632404832885770
 0.00089780082352466  0.05135836378240878  0.05056306643498934 -0.10364856537841513  0.18983502892778883  0.01087638444336771 -0.30465507903366410
 0.05423220582071099  0.03665645643450305 -0.06871663923065409 -0.09088112875122346  0.18116238277550328  0.01604216954085730 -0.30308644658969675
-0.00424923486517149  0.03193751746572050 -0.25220090517771990 -0.08222727062807243  0.16987412733380710  0.01952891686839230 -0.30161815099695555
-0.01756879862847758 -0.01003836670430335 -0.19607049007689853 -0.05822132852691856  0.16834745865294032  0.02928191846122495 -0.29977539317756685
 0.00231326486235774 -0.06992773249785350 -0.14672065819206018 -0.03832896492980531  0.16420518068266293  0.03735588228410302 -0.29803297220940430
 0.00300843649596610 -0.06296307473195209 -0.07206534524022415 -0.00308451735468921  0.16982448947321482  0.05169610037227874 -0.29591608901459404
-0.02264529950891044 -0.08670937762534098  0.02789544877860962  0.04751201419842974  0.18520538502459590  0.07230257272575209 -0.29342474359313610
 0.03844642651697824  0.00415918501099068  0.03341490174543563  0.04081378834357791  0.16415554282207054  0.06952306578798946 -0.29233091022704260
-0.01811450012360103  0.15658041445193180  0.03658970056494491  0.03362558417977696  0.14385940490436100  0.06670367674533763 -0.29124428072275150
 0.00746439620921164  0.07928396403671212  0.04851486778841730  0.02826600395958077  0.12075040430183626  0.06403312974444503 -0.29013076604020320
-0.00519899899596609 -0.02594005172328617  0.06919040341585280  0.02473504768298935  0.09482854101449623  0.06151142478531162 -0.28899036617939766
 0.00068692639337722 -0.02693697468487097  0.05720911957475257  0.01437957394092797  0.07940442418160129  0.05843423376403052 -0.28795030316981850
-0.01920834469223339 -0.03655008571040613  0.04552473179375077  0.00585272414247135  0.06116744466389110  0.05550588478450864 -0.28688335498198214
 0.03155795770517774 -0.01400714511370997  0.03273231283189466 -0.00949864312145523  0.05342821160062593  0.05202204974283903 -0.28591674364537195
-0.00493429041035550  0.02406697110118367  0.01883186268918425 -0.03167452785085176  0.05618672499180575  0.04798272863902169 -0.28505046915998790
-0.01124651789960890  0.00417795080768935  0.00906664120979261 -0.02838096666197323  0.01976711525002074  0.04601650974203604 -0.28380973244795640
-0.00592246189521334 -0.02878622250809787  0.00327973854428955 -0.02498971929354053 -0.01946535717657950  0.04419913288680959 -0.28254211055766760
 0.01415539289960893 -0.01295326042795022 -0.01735445206335283 -0.02196304171040124 -0.04820008314873473  0.04182626996943544 -0.28137482551860504
 0.00897440949780215  0.01023647403518802 -0.05283593061313454 -0.01930093391255535 -0.06643706266644492  0.03889792098991355 -0.28030787733076856
-0.02370059280776654  0.00597036018528581 -0.03290657620824752 -0.01527823315308999 -0.12385216531712001  0.03804267421722334 -0.27886646691628470
-0.01862372979482230 -0.00403750420981076 -0.01955569033245698 -0.01162010217891805 -0.17076952151335006  0.03663194138238539 -0.27752539335302680
 0.04566141541035552  0.00738313615414434  0.01834637432991454 -0.00660137824312663 -0.25686500084254493  0.03729431075437911 -0.27580985756312140
 0.00077937269443118  0.03406275139048656  0.08079961777886702 -0.00022206134571574 -0.38213860330470456  0.04002978233320448 -0.27371985954656820
-0.02753166310478668  0.00379509713166318  0.05162661461059209  0.00107945349051068 -0.36119745968945000  0.03502833114685094 -0.27302737358537954
 0.01216867970297988 -0.04202265222977934  0.02822318212899710  0.00257932467157710 -0.34068025383009690  0.03017572200225662 -0.27230800244593370
-0.00809044990815757 -0.02980665660571931 -0.01671258129314753  0.00333891989569699 -0.31858089072647233  0.02476762679551458 -0.27168896815771393
-0.00059845613129132 -0.02399551180306478 -0.08318067565584178  0.00335823916287036 -0.29489937037857605  0.01880404552662481 -0.27117027072072030
 0.00805193519443116  0.00571886167997436 -0.06928901694301748  0.00614030591298983 -0.27712254125186460  0.01491356646456671 -0.27027711105707924
-0.00420677366353100  0.05539386144024674 -0.05463394269769292  0.00818209670616277 -0.25776355488088150  0.01046760134036088 -0.26948428824466430
 0.00338907375537335  0.03057478978299023 -0.04282797400694655  0.01298663498228181 -0.24430925973108303  0.00809473842298672 -0.26831700320560176
-0.00257154460039111 -0.00041633124026026 -0.03387111087077832  0.02055392074134694 -0.23675965580246910  0.00779497771244421 -0.26677525593989143
 0.00175396969223341 -0.00837305044279800 -0.01428124104879766  0.01781049252557422 -0.20717344423338830 -0.00024170576327721 -0.26663102072954564
-0.02944260913348911 -0.02175717919232351 -0.00097198091944456  0.01482484233686617 -0.17600507542003582 -0.00883387530114636 -0.26658712237042590
 0.04949303146055100 -0.01488593975900628  0.03577683368530418  0.01274317685786234 -0.15074139782786808 -0.01535294263218385 -0.26616876178465865
 0.00452016383646904 -0.00972060450496150  0.09596520276544854  0.01156549608856273 -0.13138241145688492 -0.01979890775638968 -0.26537593897224365
-0.03868807260258886  0.00181125181897216  0.06867596363663793  0.00701409845338156 -0.08998681744543478 -0.03198179564577443 -0.26598062821519300
 0.00670208458964448  0.02555646639393741  0.04785511470350557  0.00336668552790462 -0.05449591465516927 -0.04209158132832751 -0.26621085523149480
 0.00755802020517779  0.00372080744501219  0.00289390491692148 -0.00365444426345388  0.00303159577556324 -0.05993828977605953 -0.26783859430316080
 0.00740137311553318 -0.03739936389932583 -0.06620766572311436 -0.01404929092069394  0.08259571384676277 -0.08552192098897045 -0.27086384543019100
-0.01453142551294431 -0.00654875518479150 -0.04521618314502149 -0.01185325482411199  0.07991809257727890 -0.08223096334799737 -0.26867351056241180
-0.01090906250000002  0.03841983406636928 -0.02933495527632874 -0.00934327678536062  0.07722257219669369 -0.07888618687684612 -0.26648692482452707
 0.02762230051294436  0.03069940265457160  0.00561800280746342 -0.00800494602541238  0.07459385220814892 -0.07574226501432366 -0.26428634714339183
 0.00191049178187788  0.03453312232382628  0.05964269110635498 -0.00783826254426727  0.07203193261164455 -0.07279919776042997 -0.26207177751900596
-0.01905169760258884 -0.00475383687973340  0.04249071325424905 -0.00329893189007905  0.06922071055807981 -0.06910653090219929 -0.25990942653772780
-0.01601394948705565 -0.07056910836441098  0.02915881973540200  0.00006875148530603  0.06647628889655549 -0.06561471865259740 -0.25773308361319910
 0.03709081249999999 -0.03737937057690316  0.00157017739563491  0.00780908203373421  0.06348256477797076 -0.06137330679865849 -0.25560895933177790
-0.01527268750000002  0.00598765234136815 -0.04027521376505223  0.01992205975520549  0.06023953820232564 -0.05638229534038255 -0.25353705369346413
 0.00494823989741117  0.01137253006851487 -0.02891369397531808  0.01571609606330750  0.05792692106288169 -0.05418882769082590 -0.25127026542597090
-0.01507775894980448  0.02486562382542248 -0.01962566894310855  0.01093339961713782  0.05568110431547815 -0.05219621464989804 -0.24898948521522712
 0.01972665415498220  0.00809844340051804 -0.00259925612658942  0.00830309911229923  0.05318598511101424 -0.04945400200463318 -0.24676092364759090
 0.00998694644980446 -0.02100847844423177  0.02216554447423932  0.00782519454879172  0.05044156344948990 -0.04596218975503127 -0.24458458072306210
-0.03049314405239333 -0.00406285835785656  0.01805028869535426 -0.00068556102576845  0.04862755122416675 -0.04526792131414865 -0.24221335516935377
 0.02880547979482225  0.01531152477154031  0.01385408107853400 -0.00704392065899753  0.04656423654178318 -0.04382405326892901 -0.23989434825875290
-0.03306464289960892  0.02562164082483477  0.00995998983385400 -0.02143513130327928  0.04543133129560079 -0.04517772903242864 -0.23738045871897245
-0.00677839751074656  0.06190537517708649  0.00636801496131423 -0.04385919295861369  0.04522883548561954 -0.04932894860464752 -0.23467168655001230
 0.03480428810478668  0.00125424638122897  0.00164852643814868 -0.03630424651106853  0.04155400438789406 -0.04303959254632636 -0.23269022625466323
-0.02188425968148686 -0.09094610199372372 -0.00194700591504936 -0.02804168945366279  0.03805592215662070 -0.03695109109663399 -0.23069477401606360
 0.01993565719223341 -0.06540315996034649 -0.00973719980004666 -0.02241997114423153  0.03389820417556778 -0.03011299004260460 -0.22875154042057155
 0.01351901356094205 -0.05464390235363385 -0.02172205521684322 -0.01943909158277476  0.02908085044473529 -0.02252528938423818 -0.22686052546818690
-0.03853165876611978  0.01128881665645591 -0.01805222067641024 -0.00660246763928062  0.02672529084656894 -0.01773513253459105 -0.22477462788662278
-0.02762228376611984  0.12152288365053139 -0.01431268791050037  0.00359331755623904  0.02371009549862301 -0.01219537608060690 -0.22274094894816607
 0.06934821273741737  0.06642206912458308 -0.01083327246326767  0.02364484713379608  0.02315669428334322 -0.00945316343534202 -0.22051238738052986
 0.03171487154164675 -0.00316566771854408 -0.00761397433471216  0.05355212109339048  0.02506508720072955 -0.00950849459879641 -0.21808894318371388
-0.09451775503223958 -0.01868747442865634 -0.00342390515692482  0.04667725627280987  0.01778593933723093  0.00087674986828928 -0.21639281086050900
 0.00512895221372647 -0.04981450752334880  0.00042318006173722  0.03928852276463227  0.00984715572395275  0.01201159393971198 -0.21474889718041162
 0.04348021116353095 -0.02270204288717358  0.00555029884203601  0.03381757330698537  0.00437016624334070  0.02034889420241541 -0.21291010087113460
-0.01681813740815769  0.01854707870520079  0.01195745118397155  0.03026440789986916  0.00135497089539477  0.02588865065639956 -0.21087642193267792
 0.01032493085576436  0.00703747828786797  0.01358745323848539  0.01955397497822714 -0.01084776523343611  0.04186898274092380 -0.20957005486783230
 0.00571375461113760 -0.01872809204856899  0.01290375271699495  0.01076132610711582 -0.02058870722960086  0.05505177101672876 -0.20806880517380700
-0.01919473671152865  0.00871034166426423  0.02085490776275547 -0.00518859027852132 -0.03951719000665056  0.07867513492307382 -0.20729486735339264
-0.00798607951929531  0.06784731583342844  0.03744091837576693 -0.02829577417868428 -0.06763321356458521  0.11273907445995890 -0.20724824140658918
 0.02427159972447304  0.00868372649378786  0.02180120929577885 -0.02469167207127466 -0.06146086813164619  0.10783825528340299 -0.20448725059452160
 0.05279138856094206 -0.08590921278505013  0.01046226335318963 -0.02091895828015327 -0.05543462498933250  0.10285741197960802 -0.20171226783920350
-0.10484171938165299 -0.04827801801166601 -0.01692734912949144 -0.01777551185939396 -0.04886312067530284  0.09817522278450053 -0.19898950372699290
 0.02573994095835318 -0.00370135424772522 -0.06036762815226435 -0.01526133280899673 -0.04174635518955720  0.09379168769808041 -0.19631895825788978
 0.01821973570737558  0.01495446636106403 -0.04390600415206874 -0.01039869596086295 -0.03666453210005011  0.08829356030414964 -0.19345353015960710
 0.00038989059404011  0.04728007815357802 -0.03096596074017388 -0.00616532648309125 -0.03103744783882705  0.08309408701890626 -0.19064032070443193
-0.00223412269443119  0.02858933471957417 -0.00488319964979226  0.00041650079241700 -0.02744530597384253  0.07678002142615221 -0.18763222862007714
 0.00790959584501778  0.00786733605599627  0.03434227911907614  0.00934678586566179 -0.02588810650509654  0.06935136352588744 -0.18442925390654263
-0.01255849105019552 -0.00527391488767134  0.02451846776229820  0.00951250711832248 -0.01673639862311236  0.06608242074697804 -0.18195359106661924
 0.00455832029702005 -0.02492120382842354  0.01748002491660099  0.00993130297726223 -0.00703942956941221  0.06311213207675606 -0.17953014686980337
 0.00005254344760667 -0.02028762840808239  0.00004644526974798  0.00940561154746300  0.00062259708804939  0.05902725109902342 -0.17691182004380784
-0.00602734903090024 -0.02305966119418330 -0.02778227117826083  0.00793543282892479  0.00624968134927245  0.05382777781378004 -0.17409861058863266
 0.01163668750000000  0.00180641210710666 -0.01681580893272717  0.00999012865906343  0.01947127402373372  0.05278801964989202 -0.17201271300706850
 0.01722903638214972  0.04622913952917092 -0.00943617379590873  0.01110033720046309  0.03065792430195645  0.05063366917849331 -0.16973193279632467
-0.03685719514826954  0.01766544014645427  0.01132968234860031  0.01573542029053960  0.04943908299341736  0.05263903382844992 -0.16817846445919188
-0.00833674754568069 -0.02830694558662057  0.04548175950079994  0.02389537792929295  0.07581475009811646  0.05880411359976185 -0.16735230799567000
 0.03616166050171685 -0.00930922936712785  0.02967577973095241  0.01890032466207790  0.07384732594610134  0.04944492519316317 -0.16381178666688384
-0.00279539275085844  0.02008149394616497  0.01774232944177860  0.01314221659443638  0.07176844585443182  0.04038439089525190 -0.16032348398120520
-0.01417474754568068  0.01068498674197211 -0.00864359762307791  0.01023186781094576  0.07010552499235782  0.03020926428982995 -0.15664029866634700
 0.01192651659807402 -0.00076567146053039 -0.04948200146361711  0.01016927831160605  0.06885856335987930  0.01891954537689730 -0.15276223072230907
-0.01482783270517773 -0.00455013377092299 -0.03638302768209926 -0.00052129352391083  0.06605922074867315  0.01178954158532000 -0.14961147465188218
 0.00906462615278440 -0.01224064655949142 -0.02582382041903484 -0.00836410607527679  0.06367583736706250  0.00354494548623199 -0.14626583595227566
-0.00562307144980446 -0.00535358050657896 -0.00578607546973984 -0.02683490096281992  0.05974007300672416 -0.00053993549150068 -0.14364750912628010
-0.00159726010258887  0.00536139897745894  0.02373020716578575 -0.05593367818654021  0.05425192766765810 -0.00046510134787801 -0.14175649417389550
 0.00780507144980447  0.00179041104956138  0.01787210557484244 -0.04536828534970276  0.05455734701390733 -0.01591453538216599 -0.13715111435624666
-0.01513005239741114 -0.00580190465086083  0.01261764238108371 -0.03345299728918077  0.05527872558975205 -0.03247856172396467 -0.13235085190941814
 0.02215568865278441  0.00161357920966671  0.00511037001963266 -0.02657558678834401  0.05444772318686910 -0.04488287294440801 -0.12827790133620065
-0.01309075000000002  0.01715390723153509 -0.00464971150951072 -0.02473605384719246  0.05206433980525844 -0.05312746904349601 -0.12493226263659409
 0.00833726789960895  0.00237190403970012 -0.00600219476506939 -0.00409490589098455  0.05547452110896304 -0.07689633332049467 -0.11887225907172326
 0.01686994760258885 -0.02111712566011249 -0.00586645802535283  0.01150836450553814  0.05733232143393993 -0.09650548247613797 -0.11353956738046339
-0.03659660175757105 -0.01211109004930351 -0.01128483392084335  0.04591324991711719  0.06498368644423208 -0.13163889980969190 -0.10549251082393918
 0.00713005239741112 -0.00180242170615492 -0.02225732245154094  0.09911975034375260  0.07842861613983942 -0.18229658532115640 -0.09473108940215061
 0.00915521780776661  0.00364475509630000 -0.01250158043668545  0.08215766826984780  0.07025166807291355 -0.17501691324233382 -0.09409981556780843
-0.00915528030776661  0.01614906211977897  0.01109735643817464  0.06425478371544321  0.06235477686432975 -0.16764430342503056 -0.09346539540492921
 0.01351895106094208  0.00231580060276643 -0.01696721324357877  0.04986302181815046  0.05341269923140513 -0.16061854196967762 -0.09284271750000749
 0.06326186301294433 -0.02393898055378927 -0.09669528948194568  0.03898238257796948  0.04342543517413965 -0.15393962887627488 -0.09223178185304326
-0.11830007790718000 -0.00383601930835527  0.01638746564613684  0.01499805518984105  0.03733885995589543 -0.14596626007355168 -0.09157702350278607
-0.00909169648803323 -0.00756817592303678  0.06988367068220055 -0.00547514954117560  0.03020709831331037 -0.13833973963277876 -0.09093400741048634
 0.08760150257792026  0.07765353832062521  0.34575990810942650 -0.03905204242013971  0.02697602550974657 -0.12941876348268533 -0.09024716861489364
-0.14967693120040873  0.29392257391372006  0.84401617792781450 -0.08573262344705126  0.02764564154520401 -0.11920333162327132 -0.08951650711600792
 0.21615593799339486  0.02111634803492568  0.51233886827357270 -0.08350957453928479  0.01375768864891727 -0.11381887423918917 -0.08894939417233669
 0.12759257706497593 -0.43186513299214146  0.25929844727876740 -0.08253915197621084 -0.00117545067171030 -0.10878126521705726 -0.08839402348662297
-0.36142095893025483 -0.21242340753916877 -0.28721883754219263 -0.07689386425184502 -0.01220790115331662 -0.10244920048560487 -0.08779483009761624
 0.12814916709476350  0.09163368730678262 -1.12721298618930720 -0.06657371136618734 -0.01933966279590168 -0.09482268004483191 -0.08715181400531653
-0.02003648958683065  0.07990192447692920 -0.87193656819123980 -0.07370039278100457 -0.04102899337023094 -0.09202713407939078 -0.08667234646823127
 0.01234986301294430  0.08490110346471658 -0.64933093370510900 -0.07615220903452993 -0.05881763510553892 -0.08793713240462910 -0.08614905622785302
 0.02224584280776659  0.02745955753058960 -0.30479627522934580 -0.09605085958853021 -0.09116384577259110 -0.08867810520519918 -0.08578931454268918
-0.00740112311553323 -0.07536814041228254  0.16166740723604994 -0.13339634444300535 -0.13806762537138742 -0.09425005248110101 -0.08559312141273975
 0.00580392551294436 -0.00881241309847350  0.17308577725485270 -0.10562935725687280 -0.13064181808222833 -0.08179255756499634 -0.08478655676522565
-0.01578610882302801  0.10007700159805041  0.17465544141965006 -0.07505418427567724 -0.12335450453248399 -0.06968191101084192 -0.08399173437566901
 0.02266560636870869  0.05097494411054485  0.21298097622039633 -0.05495930335874984 -0.11555032531071344 -0.05627680874736701 -0.08315308928281938
 0.00303410724914156 -0.01467462172197739  0.28806238165709140 -0.04534471450609057 -0.10722928041691664 -0.04157725077457156 -0.08227062148667674
-0.02000424754568068 -0.01856804567222742  0.22596901040399630  0.00338285680857832 -0.10083720447180997 -0.03170866727710790 -0.08155170224574859
 0.01251476010258887 -0.03182955686062713  0.17294751192558744  0.04163013605897907 -0.09392826285467708 -0.02054562807032370 -0.08078896030152743
-0.01157921015949705 -0.01012889050651461  0.08606932333224848  0.11899039777138945 -0.08894829018623424 -0.01421356333887129 -0.08018976691252071
-0.01555802020517773  0.02803281526334947 -0.03466555537602066  0.23546364194580943 -0.08589728646648147 -0.01271247308275064 -0.07975412207872840
 0.03567453146055100  0.00476108558823487 -0.02904554639925558  0.20596524833645907 -0.07564727262399462  0.00681805936537658 -0.07870810572737136
-0.00413035248925345 -0.03174671093191882 -0.02357022871218015  0.17430290439273094 -0.06488039310948154  0.02764304752282432 -0.07761826667272131
-0.01357138625537327 -0.01885683349400871 -0.01755491578057026  0.15071653304195620 -0.05604248254365856  0.04363706120494028 -0.07669197617328573
 0.03263723759184231 -0.00512608952768553 -0.01099960760442590  0.13520613428413475 -0.04913354092652564  0.05480010041172448 -0.07592923422906454
-0.05133757606094207  0.00546649783221606 -0.00645958911672973  0.08955579548887768 -0.03502558918665864  0.08399258181051525 -0.07455612076727862
-0.00038966960039106  0.02150378110673429 -0.00380146727070269  0.05198142928657392 -0.02284660639548170  0.10835408873397423 -0.07334655586070712
 0.03324590096909973  0.01722118259614051  0.00587998845662680 -0.01573287695316552 -0.00346861348157068  0.15074503784943977 -0.07152661943657083
 0.01174071189521333  0.01881112605275177  0.02258477806525876 -0.11358712323034063  0.02310838955507444  0.21116542915691180 -0.06909631149486975
-0.03586939751074654 -0.00151555548182670  0.01307812879035001 -0.09895758195072638  0.02281832104947326  0.20429902617168950 -0.06894394106821337
 0.00115528030776662 -0.03956261816737036  0.00580721756654984 -0.08349088373944041  0.02244612633580340  0.19735719059620524 -0.06880331289951450
 0.01779195539960892 -0.01147631806802603 -0.00980758165640258 -0.07114849773106158  0.02238043080327882  0.19069687328012488 -0.06861886202752263
-0.01032469760258886  0.03729067018357562 -0.03376626887850725 -0.06193042392558981  0.02262123445189951  0.18431807422344837 -0.06839058845223778
 0.00993518200854874  0.00887627951546527 -0.02658514215511150 -0.04105225824016134  0.02171816758400777  0.17688863471941820 -0.06832586343216736
 0.02879140530776661 -0.03820498794494189 -0.02011501026843423 -0.02329840475763997  0.02112159989726130  0.16974071347479192 -0.06821731570880393
-0.05724560521592429 -0.01562052279786903 -0.01099140952720439  0.00611554060483814  0.01938116169400240  0.16154215178281195 -0.06827231654065498
 0.00728669948705566  0.01898412590710424  0.00078566006857801  0.04718957784727297  0.01649685297423105  0.15229294964347820 -0.06849086592772043
 0.02166147791035546  0.00872883885768913  0.00265984908286863  0.04474755977278801  0.01788152713936420  0.14696479103415544 -0.06809904379722115
-0.02648103219223336 -0.00869247364386036  0.00328749538066878  0.04278555824897442  0.01957270048564261  0.14191815068423655 -0.06766339896342886
 0.03776583155239330  0.00063018493028736  0.00856730243021629  0.03903211056958126  0.02012000331540859  0.13582086988696399 -0.06739130268485104
-0.01211652800219779  0.01885241172656573  0.01849927023151116  0.03348721673460851  0.01952343562866212  0.12867294864233770 -0.06728275496148761
-0.00363631250000001  0.00386099775242707  0.01106913774230706  0.03462809097128269  0.02319585082682015  0.12544607092772230 -0.06656383572055946
 0.00984414059404013 -0.01461478495487319  0.00627264206908239  0.03397751905237728  0.02572439550846574  0.12116855276575320 -0.06600846503484571
-0.01860954705459113 -0.02008672651770999 -0.00835272001006142  0.04001271520511877  0.03252192307501581  0.12081207813379498 -0.06484272283156720
-0.01159804778627350 -0.04340915459570358 -0.03280694849512435  0.05273367942950716  0.04358843352647034  0.12437664703184760 -0.06306660911072387
 0.03136285840180671 -0.00011266005930888 -0.02057934817249019  0.04050301752288753  0.03872288295481940  0.11330768225721045 -0.06356843290492525
-0.01142758846909976  0.07339438636287057 -0.01052771754117687  0.02721089258941381  0.03412922531184844  0.10252023574197716 -0.06402643399583365
 0.00212992305874427  0.03415411822260552  0.00764474253387585  0.01788020160251537  0.02852084944482505  0.09068214877939022 -0.06464798364195648
-0.01135393404164678 -0.02280813745311852  0.03393803205266797  0.01251094456219218  0.02189775535374922  0.07779342136944956 -0.06543308184329373
 0.01561507679250521 -0.01363103523540729  0.02992397348782334 -0.00764258523757801  0.01906164123020314  0.06882573748951980 -0.06560780852706624
 0.00098361735173043  0.00183315130402925  0.02458177415622546 -0.02383468109077292  0.01521080888260461  0.05880741316223631 -0.06594608376605317
-0.01199293504568068 -0.00616638027668279  0.02419626364575414 -0.05481104970341484  0.01514695650253582  0.05271013236496372 -0.06567398748747533
 0.01047195409807402 -0.02478016447534561  0.02876744195640937 -0.10057169107550375  0.01887008408999675  0.05053389509770200 -0.06479151969133268
-0.01230845655239333 -0.00378101861944514  0.01484000574931161 -0.09115667535637993  0.00846001003139120  0.03372412415775047 -0.06618698941023474
-0.00227227915498222  0.02908451267394387  0.00481333656437483 -0.08155149291816356 -0.00296478225126678  0.01586371277044524 -0.06774600768435121
 0.01245402915498221  0.01766409061243021 -0.01977119333575588 -0.07265602233750926 -0.01060259456639503  0.00192434491315090 -0.06869465444090293
-0.00058461489741114  0.00604879847092490 -0.05891358395108053 -0.06447026361441700 -0.01445342691399355 -0.00809397941413257 -0.06903292967988986
-0.00537620770517772 -0.00483922863117656 -0.04372529872779043 -0.05363582418016907 -0.03243746090765857 -0.03274583741410586 -0.07164914243392145
-0.00567555239741115 -0.02487633324595409 -0.03148886726490078 -0.04351109660348318 -0.04663451493379386 -0.05347665188406827 -0.07365498367038827
 0.01216880470297996 -0.01076861574103864 -0.00823596759168338 -0.03073768831564162 -0.07496477060599564 -0.08884100002672052 -0.07793876242189973
 0.00484396550219779  0.01097882197736753  0.02603340029186178 -0.01531559931664435 -0.11742822792426387 -0.13883888184206253 -0.08450047868845582
-0.01555831595835320  0.00421443570341535  0.01918874909449638 -0.00977852130470779 -0.10714585862579593 -0.13422367249665620 -0.08256081641239812
 0.01236360825317545 -0.00573889677334211  0.01346243836582981 -0.00365946134014109 -0.09720019603737577 -0.12955813223921560 -0.08062436022893021
-0.01289582144980443 -0.00379091999862637  0.00356242418781875  0.00028761240812181 -0.08599792689980779 -0.12508042950267810 -0.07867593874502335
 0.01435050894980443 -0.00253874798953489 -0.01051129343953681  0.00206269994008091 -0.07353905121309193 -0.12079056428704354 -0.07671555196067756
-0.01555802020517770  0.00131020275701490 -0.00900853773821323  0.01194375038462506 -0.06576989501291966 -0.11579967989983114 -0.07479982028549771
-0.00931180239741116  0.00464125602675429 -0.00714237963520798  0.01965281461286542 -0.05674413226359953 -0.11099663303352175 -0.07287212330987891
 0.02719422445200228  0.00990512899306183 -0.00663245775887121  0.03546784175369083 -0.05240808900082300 -0.10549256699563439 -0.07098908144342603
-0.01992195770517775  0.02625683970417766 -0.00747877210920290  0.05938883180710127 -0.05276176522459005 -0.09928748178616903 -0.06915069468613899
 0.01938986950854875  0.00122817660558897 -0.00326354395454238  0.05305795642647533 -0.03561317005133061 -0.09569863574211251 -0.06714565279262734
 0.00518101240815767 -0.03985491531207294 -0.00006289284365028  0.04641603689412489 -0.01720796832892332 -0.09229762721895905 -0.06512864559867672
-0.02331071896055101 -0.02102206319045559  0.00692421134277863  0.04093494993940743 -0.00349248609305961 -0.08819559952422762 -0.06315629351389203
-0.00014274335576435  0.00341815172862812  0.01769776860474432  0.03661469556232294  0.00553327665626051 -0.08339255265791820 -0.06122859653827321
 0.01245402915498221  0.00693140379109584  0.01434009060833125  0.02796215502643102  0.03206131080260713 -0.08120574495701760 -0.05913424442642974
 0.00039235710039106  0.01454922859305622  0.01113580728426175  0.02047044706817208  0.05389962546241016 -0.07831791808453903 -0.05708454742375216
-0.00649776544528962  0.00684857938786778  0.00735904724939567  0.00864645295110569  0.09324021151923967 -0.07804633037746926 -0.05486819528484990
-0.01964850360710371 -0.00474037869942564  0.00300981050373303 -0.00750982732476814  0.15008306897309565 -0.08039098183580826 -0.05248518800972295
 0.03715296174634358 -0.00181797048318193  0.00079708592891309 -0.00749779554304517  0.14160656032538932 -0.07297169580409008 -0.05072414617032884
-0.00178281004568069  0.00296653569786969 -0.00066357945554979 -0.00750104302169814  0.13330828314882961 -0.06574024729327493 -0.04895113903049578
-0.01941963264826956  0.00080159766558762 -0.00493096794872434 -0.00744726752432604  0.12434483706644278 -0.05780777961088183 -0.04722278699982864
 0.01384368750000000 -0.00286897814145114 -0.01200507955061058 -0.00733646905092889  0.11471622207822874 -0.04917429275691074 -0.04553909007832738
-0.01544298974866062 -0.00092043727530295 -0.00860435790800716 -0.00743848322125604  0.10757005124217671 -0.04315704506834847 -0.04368873802060147
 0.00272255470297994  0.00097341986454235 -0.00601339237201200 -0.00748347441555812  0.09975871150029748 -0.03643877820820823 -0.04188304107204144
 0.00616091829885616  0.00307135944929727 -0.00040037590441567 -0.00774127825358450  0.09442981591058024 -0.03233675051347679 -0.03991068898725673
-0.00886993085576434  0.00915941337369419  0.00823469149478184 -0.00821189473533516  0.09158336447302491 -0.03085096198415413 -0.03777168176624734
 0.01323338510258887  0.00035615785453800  0.00559131127418292 -0.00788828361821373  0.07947230533264896 -0.01960123596477427 -0.03625463998097078
-0.00712992739741113 -0.01272765613914333  0.00323205411048666 -0.00763780378170149  0.06669607728644582 -0.00765049077381644 -0.03478225330486010
 0.00383107029702006 -0.00983620842112733 -0.00018756473717211 -0.00711439429033313  0.05640229339240465  0.00168401525173259 -0.03314321149252476
 0.00707780470297994 -0.01011192550851147 -0.00466754526879338 -0.00631805514410864  0.04859095365052542  0.00840228211187282 -0.03133751454396472
-0.01594758155239333  0.00143237737380175 -0.00519020212146728 -0.00654030333669946  0.03151500620582552  0.02488448646207029 -0.03015378303113751
 0.00024705124462672  0.01912558715222650 -0.00484257470048005 -0.00648962187443415  0.01692150291328758  0.03875045164685895 -0.02880339638208562
 0.00886988510258887  0.01387076398335235 -0.00774289240582436 -0.00745752775098416 -0.00693660808207105  0.06238035432170484 -0.02807497516876653
-0.01619973744309182  0.01178856533176418 -0.01389115523750023 -0.00944402096634948 -0.04005932678025037  0.09577419448660790 -0.02796851939118025
 0.02400843749999999 -0.00213402921167399 -0.00791792183751102 -0.00762909448130967 -0.03860605881930890  0.09272852385669095 -0.02554085700688741
-0.01505242220346087 -0.02909326263609819 -0.00310461758576344 -0.00549451644426069 -0.03712505448528786  0.08965310267702666 -0.02310122932215565
 0.01058849884721559 -0.00739909739675462  0.00603760118040198 -0.00455289424002818 -0.03574756370481746  0.08668871206057242 -0.02070625674658980
-0.00712103680325177  0.03122870396163795  0.01950873446098523 -0.00480422786861216 -0.03447358647789769  0.08383535200732817 -0.01835593928018983
 0.00338657375537327  0.00665931496685624  0.01682413883213876 -0.00060338971793939 -0.03281329140985493  0.08056762025099116 -0.01583896667756519
 0.00663584165498221 -0.03219828099656494  0.01364318676327088  0.00240449259991690 -0.03125650989536281  0.07741091905786415 -0.01336664918410646
-0.01497340530776661 -0.01773156260396395  0.01231466214722690  0.00986454669702992 -0.02931341053974766  0.07383984616164437 -0.01072767655442304
-0.01105176010258886 -0.00032993688562506  0.01283856498400680  0.02177677257339969 -0.02698399334300948  0.06985440156233176 -0.00792204878851495
 0.02786946001074653  0.00611846557755392  0.00644911444951254  0.01707326716555897 -0.02609633395721276  0.06741541321218032 -0.00573838645833967
-0.01012943980556881  0.01864706400453515  0.00178111372234446  0.01170737401574715 -0.02531218812496669  0.06508745542523889 -0.00359937923733028
 0.00164913279702006  0.00848406217463117 -0.00931142514844454  0.00881354557328234 -0.02414172445159758  0.06234512593520469 -0.00129371688009623
-0.00077937269443119 -0.00692998939921372 -0.02682850216285444  0.00839178183816456 -0.02258494293710545  0.05918842474207768  0.00117860061336251
-0.00212962730556881 -0.00274685653559963 -0.02036887641010687 -0.00125585298437021 -0.02246991923355478  0.05757817979811181  0.00302895267108844
-0.00708575534270075  0.00349635824003267 -0.01497412512498514 -0.00843142309955795 -0.02196857768888107  0.05555356315105314  0.00504595986503904
 0.01305241945164056  0.00205124265225934 -0.00560520822300091 -0.02483286430216267 -0.02290899395514881  0.05507540275315562  0.00644100162325684
 0.00397813568540151  0.00063255809313402  0.00773787429584581 -0.05046017659218437 -0.02529116803235799  0.05614369860441919  0.00721407794574182
-0.01484660449732126 -0.00088476840780200  0.00624916881486840 -0.04165606923988518 -0.02229262870692442  0.05144054116213106  0.01030836087493337
 0.00450980946286806 -0.00523005001795424  0.00385841307411389 -0.03223563212694768 -0.01947294337009203  0.04684841428305294  0.01335798869495901
 0.00014505224866063  0.00097874052101244  0.00483415473382824 -0.02511536899492906 -0.01598576586066369  0.04184191570088205  0.01657427165120934
 0.01081855009184232  0.01393517697731217  0.00917639379401143 -0.02029527984382930 -0.01183109617863939  0.03642104541561834  0.01995720974368434
-0.01759719760258886  0.00170905603864022  0.00095469351209632 -0.00689082452969235 -0.01016754119839774  0.03254663137951579  0.02271818240042654
-0.00354597084501778 -0.02034438458572712 -0.00311726316093464  0.00421345680352574 -0.00783649404556012  0.02825784564032044  0.02564581019339340
 0.01720751125537326 -0.00572176884085745 -0.02267627382070549  0.02390210429978103 -0.00799656159450515  0.02551551615028622  0.02795147255062746
 0.01241579344760666  0.01964235852422691 -0.05772233846721624  0.05217511795907352 -0.01064774384523280  0.02431964290941313  0.02963516947212870
-0.03044095885796214  0.00491861877257856 -0.03496993077565155  0.04841084094713606 -0.00400195946142587  0.01735231637498831  0.03364007300033652
 0.00755802020517776 -0.01643820907887292 -0.01723210077557071  0.04483672275204904  0.00331131709497702  0.00997061813747069  0.03781163166476900
 0.00436362499999998 -0.01304001513077864  0.01922038794762930  0.04055292219096902  0.00813347894959727  0.00413537614911421  0.04136122489346868
-0.01032444760258885 -0.01458649625404510  0.07438753539394845  0.03555943926389602  0.01046452610243488 -0.00015340959008114  0.04428885268643554
 0.01788246780776659  0.00232080121592600  0.05971062563927482  0.03321452698394453  0.02209253988980709 -0.01021364862282824  0.04953768708610898
 0.00494823989741114  0.02692988364993704  0.04584038049561950  0.03015993233800004  0.03122943897539666 -0.01872743140641420  0.05416455605004960
-0.01963631249999999  0.02279551328918097  0.02895962203897604  0.02975390833917707  0.04966330469552082 -0.03301266748355190  0.06111263162069677
 0.01048109469223340  0.02829240605695758  0.00906835026934445  0.03199645498747559  0.07739413705017956 -0.05306935685424133  0.07038191379805049
-0.00771466729482227 -0.00215506451201459  0.00041246714064707  0.02435440141328109  0.07042821756848260 -0.05158668929988495  0.07098833498431081
 0.02879153030776662 -0.05460750709489310 -0.00492069282102169  0.01546035251340050  0.06358073126016506 -0.05008856354074921  0.07160214937533166
-0.04347960291035548 -0.02493627610274185 -0.02265442446152743  0.01123881377981916  0.05629124633149384 -0.04864812858724380  0.07218837195055543
 0.01803911489741113  0.01883644661783954 -0.05278872778087016  0.01168978521253708  0.04855976278246890 -0.04726538443936872  0.07274700270998206
-0.00335104229482226  0.00998168574540740 -0.03664346755189357 -0.00529728869425594  0.04247784054147932 -0.04566733527375166  0.07340860752783658
 0.01323069760258887 -0.00175785537728225 -0.02482155308682211 -0.01761185243474970  0.03595391968013602 -0.04412697691376494  0.07404262052989400
-0.01652745005690818 -0.00273125003733959  0.00313530742783099 -0.04736446151475440  0.03107956012682809 -0.04237131353603622  0.07477960759037922
 0.02619875000000000 -0.00703573350807802  0.04722711399206574 -0.09455511593427003  0.02785476188155547 -0.04040034514056549  0.07561956870929223
-0.03416199509136137  0.00109157570716956  0.03110248212187904 -0.07666609916204117  0.01847371702449520 -0.03923290601043242  0.07607522541029110
 0.01731261850451484  0.01552605534525649  0.01151758911027067 -0.05647806911668649  0.00865067354708124 -0.03812315768592968  0.07650329029549285
-0.00711176385844308  0.00642185451331126  0.00484656648590422 -0.04487007341391257  0.00047719137770262 -0.03679810434368495  0.07703432923912243
 0.00213107433818591 -0.00778724330708720  0.01108941424877967 -0.04184211205371938 -0.00604672948364067 -0.03525774598369820  0.07766834224117981
 0.00424835421189038 -0.00294460619917284 -0.03086295839589086 -0.00679302659632900 -0.01872689695677161 -0.03452091688904912  0.07791805082532301
 0.02766320670126306 -0.00281784183312473 -0.04782983695598777  0.01967602451848063 -0.02975750312186722 -0.03356878277665803  0.07827073346789402
-0.04931472791035546  0.01490879920759735 -0.15804384889192508  0.07816619973048747 -0.04694435589875048 -0.03342017792960458  0.07823911169255082
 0.00875639086639166  0.05929247643363646 -0.36150499420370263  0.16867749903969150 -0.07028745528742138 -0.03407510234788876  0.07782318549929335
 0.01513286489741113  0.00419074023687036 -0.21696310009669248  0.13968433630268748 -0.07065512953697703 -0.03173121472256439  0.07884150291926499
 0.02319002973791406 -0.02768561692463459 -0.09548937672055356  0.10864290459608360 -0.07072715130937866 -0.02944501790287037  0.07983222852343952
-0.04484322891438937 -0.14624026867077924  0.11207593186087052  0.08524571675159301 -0.07190256314790257 -0.02694351606543435  0.08092592818604188
 0.05784408946005435 -0.47023921552111700  0.40573282564757973  0.06949277276921566 -0.07418136505254867 -0.02422670921025632  0.08212260190707203
-0.07316333715448554 -0.02750961491743184  0.37809154934401970  0.02521112230798507 -0.07234225916985984 -0.02231343162041595  0.08293497121018802
-0.20741459710832377  0.63760677538168550  0.32226618381216465 -0.01142628429113227 -0.07160654335329324 -0.02018484901283358  0.08385031457173181
 0.40870712042304547  0.47276436760531515  0.37162527124536050 -0.07659239736910284 -0.06675291974939165 -0.01885979567058884  0.08438135351536138
-0.06672151132766616  0.43552248852074527  0.52616881164360700 -0.17028721692592663 -0.05778138835815508 -0.01833827159368173  0.08452808804107670
-0.12969316092293810 -0.07793104671427520  0.28815862940994513 -0.15751145442945075 -0.06417809805013619 -0.01481793547316608  0.08610906618002112
 0.09000857382766618 -0.94521683784263840  0.11101423815616170 -0.14524750037543405 -0.07167819780823950 -0.01108229433490844  0.08779301837739335
-0.11358659260770794 -0.49198267262033396 -0.29328437747739555 -0.13107345121041677 -0.07506038977900786 -0.00815018246198843  0.08909266615685137
 0.03326968718941965  0.11238610153415915 -0.92473721749072650 -0.11498930693439896 -0.07432467396244125 -0.00602159985440606  0.09000800951839513
 0.01920865719223340  0.15271283637167174 -0.70843895096484080 -0.10603373465992410 -0.08895719922909229 -0.00089420520321513  0.09235759649316796
-0.01725202930373271  0.24280256309431675 -0.52434518904039120 -0.09516806727444870 -0.09947181670840834  0.00342966018263815  0.09432287905002658
 0.02988120827503027  0.14717427576500966 -0.22006257971079565 -0.09143097189051620 -0.12535467527094202  0.01075233761209999  0.09772240522011420
-0.02138584884404018  0.03623019315631280  0.20440887702394603 -0.09482244850812660 -0.16660577491669330  0.02107382708517037  0.10255617500343078
 0.01855079241842329 -0.01755456331137794  0.18032944873953980 -0.07160973223056590 -0.15050181801690910  0.02020359764914420  0.10203727475174558
 0.02982120451929529 -0.11380463899225873  0.15563169233354050 -0.04599335103523570 -0.13483106356338530  0.01932137405378073  0.10149078268426326
-0.06599161502101214 -0.05157198580988340  0.13324156789307492 -0.02934756943739202 -0.11754357557045428  0.01848391327045812  0.10104726467520876
-0.03649768085576432  0.04161641088901342  0.11315907541814306 -0.02167238743703484 -0.09863935403811591  0.01769121529917636  0.10070672072458206
 0.10183322038568690  0.01927639999818123  0.08446438320266933  0.01948152803549890 -0.08576886421714627  0.01673146023906847  0.09998187235604118
 0.03389679229482224 -0.00624797698098642  0.06297351559545755  0.05166484391054614 -0.07128164085676933  0.01581646799100143  0.09935999804592811
-0.11575145263482847 -0.01988813792858681  0.01459760854139715  0.11732689325776996 -0.06282814920776106  0.01473441865410826  0.09835381931790084
 0.04071336301294436 -0.06037596026082968 -0.06066333795951188  0.21646767607717030 -0.06040838927012148  0.01348531222838894  0.09696333617195929
-0.00771455904164680 -0.00066694624118177 -0.03558795128128837  0.19066412460535093 -0.03547043602641443  0.01285967134593333  0.09700709663924685
 0.01601394948705569  0.09745748585444972 -0.01640325446494369  0.16314194392625714 -0.00891574924330009  0.01227879327551857  0.09715383116496220
-0.01324752208964458  0.05221362589651064  0.02476579620756373  0.14203377476808310  0.01160520582844556  0.01153085811627768  0.09691626127276336
 0.01809134584501785 -0.00562584573176432  0.08791920073623388  0.12733961713082873  0.02609242918882251  0.01061586586821064  0.09629438696265025
-0.02089600894980451 -0.01645785465393839  0.06902587970213192  0.08870804261716993  0.06309784585526697  0.01032433916340731  0.09710675626576624
 0.01279173455459119 -0.04357031182965043  0.05209099031953941  0.05649047962443082  0.09406953081034272  0.00986575536977783  0.09753482115096798
-0.00761050115278444 -0.00992330895316277  0.02784713451036258  0.00033549975528731  0.14755940907148596  0.01003063711941206  0.09939712964939879
-0.00294723570737551  0.05187467361096899 -0.00370568772539856 -0.07975689699026060  0.22356748063869655  0.01081898441230998  0.10269368176105856
 0.01206434280776659  0.00861176969797354 -0.00798107590633190 -0.07051363775111058  0.21553651069300614  0.00928052662097924  0.10063756383771648
 0.01570065530776663 -0.05861616855121744 -0.01180463578414966 -0.06130960392626567  0.20737650133937416  0.00778683164168937  0.09868441997280220
-0.03358312311553323 -0.03640538105259399 -0.01731444184549241 -0.05195917886228614  0.19969807361235833  0.00612607957357335  0.09634697168997369
-0.01048109469223335 -0.01515276557605560 -0.02451049409036015 -0.04246236255917197  0.19250122751195858  0.00429827041663119  0.09362521898923096
 0.03794674811553316  0.00967579656929530 -0.02541338990424349 -0.03351188579829122  0.18350709431303580  0.00309392680295273  0.09233770990171730
 0.02789737573168239  0.05488990120692467 -0.02321022437779828 -0.02441501779827582  0.17499454274072910  0.00172252610044814  0.09066589639628941
-0.06873922011333543  0.02402412552351649 -0.03259903758488471 -0.01586448934049384  0.16468470406989932  0.00097459094120724  0.09042832650409056
 0.01414140991890425 -0.02320897981935368 -0.05357982952550278 -0.00786030042494528  0.15257757830054647  0.00085012132523005  0.09162500022512070
 0.01488342190595986 -0.00935837928888266 -0.03129876787232282  0.00218285542040231  0.14717801929866986 -0.00160115337497581  0.08746900391114897
 0.01328577454384461  0.01053086039523493 -0.01492817395486212  0.01450627907711773  0.14226004192340932 -0.00421948516400781  0.08292870317926300
-0.02612987730556884  0.00788359194936879  0.02350058584879949  0.01831962740694448  0.13554477744962573 -0.00621435140977611  0.07982264606060607
-0.00076542320737553  0.00810270493861409  0.08398751153866198  0.01362290040988252  0.12703222587731902 -0.00758575211228071  0.07815083255517818
 0.01701258270517774 -0.00237566322184872  0.06215224141944014  0.04068620690900748  0.12522724107248856 -0.01128395789901396  0.07112634901474837
-0.02575378219223338 -0.01811016409490162  0.04454912809169179  0.05923943808124376  0.12162496916913498 -0.01435869814248352  0.06553610908754758
 0.03650619760258887 -0.01422851063324348  0.01115139059256660  0.10955270274966694  0.12473026403325760 -0.01976024347018174  0.05459319912534487
-0.01628527020517772 -0.01501591054205211 -0.03804097107793548  0.19162600091427700  0.13454312566485635 -0.02748859388210861  0.03829761912814021
 0.00436362499999997  0.00162183395097194 -0.02828699285440360  0.15516924042102814  0.11932300732507350 -0.02653318950038456  0.04197847565771426
-0.01309087499999999  0.02426548542011208 -0.01890135797208091  0.11571953723523509  0.10465381298361229 -0.02557483183327460  0.04565522916639574
 0.01628527020517774  0.02449478690885461 -0.00814104702573586  0.08743964824215891  0.08792854228930569 -0.02462749597727404  0.04934729535751274
-0.01473410045603617  0.03971789948876882  0.00399393998463156  0.07032957344179956  0.06914719524215368 -0.02369118193238284  0.05305467423106522
 0.01445450100403389 -0.00101665272265946  0.01099856608011872  0.01153318456311694  0.05803922960806157 -0.02271373392844002  0.05670490539576825
 0.02553255570689461 -0.08598714698388508  0.01300465227141502 -0.03609339012284881  0.04487518762112407 -0.02174730773560656  0.06037044924290678
-0.05488003131180050 -0.00586685799459442  0.03366554334881203 -0.12540627888713787  0.03938452704724643 -0.02073974758372148  0.06397884538119586
 0.00285984802698556  0.14934010616617555  0.07298123931230974 -0.25640548172975014  0.04156724788642865 -0.01969105347278474  0.06753009381063543
 0.02735793676831762  0.02431978361556421  0.04267625563559549 -0.23182924245178624  0.01511251942621680 -0.01879587338694520  0.07129462039303741
 0.00026241337713821 -0.17047782743649442  0.01893025987865840 -0.20670630497812130 -0.01339828538684044 -0.01791171511221503  0.07507445965787486
-0.01238508197349536 -0.10486305258676008 -0.02929421204111756 -0.18362367294721854 -0.03423570878683783 -0.01698642287843322  0.07879715121386287
 0.01822020221372650 -0.04036664333254220 -0.10199716012373239 -0.16258134635907787 -0.04739975077377534 -0.01601999668559977  0.08246269506100137
-0.02574006595835323  0.02830356314558017 -0.08334519147476890 -0.13392449619558963 -0.08920124206010693 -0.01520708451786351  0.08634151706110227
-0.00740135636870870  0.13402904561195328 -0.06493653879628030 -0.10730795147486348 -0.12332935193337863 -0.01435303839107560  0.09016319135235368
 0.02964761992965079  0.10146235540168763 -0.04561981855368644 -0.07307688317878977 -0.18609491110604448 -0.01365250628938488  0.09419814379656744
 0.02415678883646901  0.09658156661503930 -0.02539503074698732 -0.03123129130736843 -0.27749791957810430 -0.01310548821279133  0.09844637439374354
-0.05758348136870864 -0.01162441293789242 -0.00855919722623430 -0.01780348829457538 -0.26202451226564777 -0.01198554799486070  0.10189864008791974
 0.04219997038568694 -0.19390822483587180  0.00443988251800981 -0.00293028134254842 -0.24688193560176800 -0.01087662958803945  0.10536621846453142
-0.03989511401697825 -0.09972980270756421  0.03175792229231696  0.00654860467079740 -0.23050468214869860 -0.00972657722216656  0.10877664913229364
-0.00177440631180052  0.02704452518212672  0.07339492209668716  0.01063316974546207 -0.21289275190643958 -0.00853539089724203  0.11212993209120636
 0.03289619672215599  0.03216927665160795  0.06159283555731409  0.03484961463561742 -0.19988869817236216 -0.00749771859741468  0.11569649320308150
 0.01581908343686010  0.05893900665866014  0.04916014469891183  0.05367173858709161 -0.18564996764909517 -0.00641891233853569  0.11920590660610711
-0.04314208501074653  0.00492857703475957  0.03908090119859883  0.09262574235405649 -0.17601911363400960 -0.00549362010475388  0.12292859816209513
 0.01369949262408199 -0.10136781346483975  0.03135510505637505  0.15171162593651197 -0.17099613612710546 -0.00472184189606925  0.12686456787104544
 0.00053280470297991 -0.01253034145377280  0.01484612380082350  0.13566431119568600 -0.14877632937666505 -0.00337714154604754  0.13000457267699590
 0.00904037342611358  0.12091487737810439  0.00142880004325979  0.11884167245243449 -0.12532184583703500 -0.00199130723697418  0.13308742977409682
-0.01223489363129132  0.08788171866354874 -0.02352674657639586  0.10491258227856270 -0.10647523880558651 -0.00075898695299801  0.13638356502416010
 0.02759336389337722  0.07675582203994823 -0.06002051605814346  0.09387704067407061 -0.09223650828231944  0.00031981930588098  0.13989297842718570
-0.03969251356094206 -0.01612908976182453 -0.05345305158951112  0.07204262879448517 -0.06080094851551604  0.00197154770609706  0.14260642692721143
 0.03394630252101217 -0.16936234553467472 -0.04439737287513824  0.05310176548427945 -0.03397326525689411  0.00346976208121596  0.14553315358019947
-0.03298174147129757 -0.09737251545482092 -0.04462783614598567  0.02336203189898035  0.01005124724526418  0.00554089859767195  0.14766391533018758
 0.00693033170114384 -0.01279257676127810 -0.05414444140205338 -0.01717657196141213  0.07127258899095881  0.00818495725546502  0.14899871217717570
 0.01239907721372648  0.02480043691316675 -0.02900469296298043 -0.01741324329081082  0.06831449027068953  0.00869084137300693  0.15330409048320130
-0.00202504041035549  0.09042385906014666 -0.01202655477711362 -0.01772116381121811  0.06541393573697837  0.00921918272989942  0.15762478147166237
-0.00038998210039104  0.05143637263071652  0.03541112754529360 -0.01776317873078314  0.06229862337535194  0.00966371252853777  0.16188832475127402
-0.04363624999999998  0.00368847976849593  0.11330835400424119 -0.01753928804950591  0.05896855318581021  0.01002443076892195  0.16609472032203615
 0.07521858543184853 -0.01136513119159752  0.07752901417023336 -0.01830777058058912  0.05643997012137146  0.01069793800297216  0.17051439404576070
 0.04613162342611354 -0.02775073423114731  0.05147727534744208 -0.01881034751083006  0.05369662922901743  0.01128763367876821  0.17487692006063574
-0.12650368054518393 -0.03916527515488673 -0.01087836468496789 -0.02030529765343143  0.05175477546176636  0.01219011834823028  0.17945272422847314
-0.01953574685222710 -0.08475933359263271 -0.10953790592699660 -0.02279262100839323  0.05061440881961828  0.01340539201135835  0.18424180654927280
 0.10490839981631530 -0.00279369608991583 -0.07270944334176700 -0.02157635711475558  0.04648285150497358  0.01345332125807653  0.18823492396707264
-0.03798501282925973  0.14682022048394350 -0.04515729101224630 -0.02049378562741505  0.04213653636241359  0.01341743894654056  0.19217089367602302
 0.01186922675757111  0.04396732251970087  0.01701452249835225 -0.01891226728718751  0.03859170834495658  0.01369434562867060  0.19632014153793576
 0.01777822241890423 -0.13284049382474034  0.11380599719002867 -0.01683180209407296  0.03584836745260254  0.01428404130446665  0.20068266755281075
-0.04647936531851316 -0.03364479730467104  0.08139513741310252 -0.01661343190620932  0.03011383588775188  0.01370639256385279  0.20424922866468590
-0.04176400618502404  0.12717627213489868  0.05619645672115100 -0.01589611486545868  0.02518079144800420  0.01344153281690495  0.20802906792952333
 0.09867218949498843  0.05800831880351369  0.00408155725078841 -0.01704089282995895  0.01725655633575990  0.01200932865354720  0.21101294229136080
 0.04701154502149310 -0.04132998059879484 -0.07494956099798526 -0.02004776579971013  0.00634113055101896  0.00940978007377954  0.21320085175019826
-0.13841093876330607 -0.02807101558248072 -0.05352798321808926 -0.01610520560134467  0.00658898033116155  0.01116682016598551  0.21835934266807333
-0.02649524842611353 -0.02644567135338948 -0.03910986099023182 -0.01142310775274956  0.00680915394544780  0.01284004869993731  0.22346068587709886
 0.12272456218941959  0.01859693672960698  0.00144551318638389 -0.00950100198892157  0.00713261641686862  0.01482606622755514  0.22877530723908680
-0.01901000314777286  0.12113230489757502  0.06813813931175788 -0.01033888830986070  0.00755936774542402  0.01712487274883897  0.23430320675403699
-0.03112975664423566  0.00910177136106111  0.03728521319413734 -0.00087634394196099  0.00760063981129746  0.01825633485371290  0.23903514136598730
 0.02789371273741741 -0.18323979208320407  0.01772973018715647  0.00582620834117161  0.00774520073430547  0.01970058595225285  0.24398035413089990
-0.03895967232706191 -0.07585651150355789 -0.04398838450435066  0.02282919131314304  0.00750428239463151  0.01997749263438289  0.24812960199281264
 0.00946859123388020  0.09009311002844614 -0.14786913088038406  0.05013260497395330  0.00687788479227557  0.01908705490010301  0.25148288495172527
 0.00915526356094205  0.03747017151284888 -0.09439679362895206  0.03899428796417534  0.00769011538351295  0.02255320583779676  0.25780674936967550
 0.01118038321812212 -0.03788422949329014 -0.05447074732894108  0.02625692106247915  0.00860563483188490  0.02633214576915651  0.26434389194058805
-0.02107686301294436 -0.02840365755438118  0.03601074505588378  0.01948728960125926  0.00913567501757488  0.02894374128410637  0.27008506960850065
-0.02703768561553319 -0.02957590218714824  0.17704768352552253  0.01868539358051566  0.00928023594058289  0.03038799238264632  0.27503028237341326
 0.05960822602588865  0.00900870586929139  0.12940912860732676 -0.00438839431021494  0.01086342505718421  0.03618883215315987  0.28294607659736330
-0.02703774811553319  0.06796427042608845  0.09143655611323284 -0.02149444676046923  0.01206113491110356  0.04082232750726351  0.29006590591831340
 0.01192175345835317  0.05089439032477606  0.01739004610732284 -0.06087239108071053  0.01469747295861621  0.04981241153334078  0.30015631669830090
 0.01710329936015996  0.04736449695274220 -0.09273040141040320 -0.12252222727093881  0.01877243919972217  0.06315908423139165  0.31321730893732570
-0.04240143127686637 -0.00669731482676750 -0.06822108130496690 -0.10105223142169540  0.01747837192913687  0.06024674665795798  0.31519194024320110
 0.01486917666572876 -0.09488168943436942 -0.04699532423061290 -0.07736794688618187  0.01610344398439656  0.05729295121959377  0.31716138868144483
-0.00149278146055102 -0.05571892588307000 -0.01351514309440483 -0.06194750023045332  0.01503029218393703  0.05449387863952368  0.31915017984501810
-0.02735124654164675 -0.01152608328692802  0.03221946210365731 -0.05479089145450972  0.01425891652775825  0.05184952891774770  0.32115831373392070
 0.05205073482706184  0.01389424874777407  0.03221993408538548 -0.01679321984569635  0.01236129696861142  0.04862774562772580  0.32309425958913707
 0.03958618592611357  0.07319020180584843  0.02818031146527902  0.01294061388333206  0.01076545355374535  0.04556068519599801  0.32504954816968284
-0.10005085982706190  0.00606061606674906  0.03921852716660414  0.07351551044523025  0.00804336623591122  0.04191619119602427  0.32693264871654226
-0.01122223167928899 -0.12422167922269964  0.06533458118936082  0.16493146983999820  0.00419503501510902  0.03769426362780457  0.32874356122971520
 0.07647832763482845 -0.01881485383460437  0.03517937652822582  0.14124701578307203  0.00454990326189832  0.03562734747427455  0.33082388315230430
 0.01866590750281374  0.15512763047442493  0.01388893505155749  0.11538127733897302  0.00520654765296838  0.03371515417903865  0.33292354780022280
-0.07083100345835320  0.07329155356031727 -0.04048525302660654  0.09765620305355960  0.00473694814107038  0.03122552731555681  0.33495102441445500
 0.00549098958683083 -0.04291647941243076 -0.12794318770626625  0.08807179292683169  0.00314110472620432  0.02815846688382900  0.33690631299500070
 0.02836362499999994 -0.03084662601880814 -0.09193089916440987  0.04810601055253440  0.00574846077892975  0.02724641786679088  0.33913101098496250
 0.03424799293466232  0.00010048319077981 -0.06417239761379709  0.01628089233692262  0.00722957292868711  0.02575693528150680  0.34128352094123790
-0.07101156176831760 -0.03940328541228989 -0.00561034365701201 -0.04592559812625853  0.01291388454603596  0.02642246411091238  0.34370544030692920
 0.00515338018087095 -0.13938135111782800  0.08375526270594537 -0.13851346083700905  0.02280139563097631  0.02924300435500761  0.34639676908203637
 0.03320738625537323 -0.01366626748493861  0.05816044643545718 -0.11771649871616757  0.01700235274851875  0.02402093250859016  0.34808264825316626
-0.01799714143624415  0.18856201090001762  0.03326985128028990 -0.09547685802669238  0.01162768361253591  0.01895358352046683  0.34978787014962553
 0.01714120582071091  0.10523915902084809  0.00575106714298214 -0.07862136705434888  0.00466923009331105  0.01330880096409756  0.35142090401239850
 0.00949267320737556  0.00513093169641563 -0.02439590597646610 -0.06715002579913702 -0.00387300780915585  0.00708658483948233  0.35298174984148500
-0.02921937311553322 -0.03233342164217665 -0.04473434428267334 -0.03558476424403219 -0.00650448192512935  0.00301938012955677  0.35481200507998756
 0.01458345221372650 -0.10218513193683475 -0.04940174158267722 -0.00940365240605902 -0.01071974042434488 -0.00162525814861474  0.35657007228480375
-0.00915496780776662 -0.05116558054858588 -0.11255426012532734  0.03687137973180715 -0.00902423513706702 -0.00411488501209659  0.35859754889903583
-0.00083177439521332  0.02112037373777081 -0.23419189991062360  0.10324033216956630 -0.00141796606329576 -0.00444950046088878  0.36089443492268370
 0.00959713510258886  0.01403903191415910 -0.13756009573153840  0.09461775312488516 -0.01587096775225606 -0.01282672800019367  0.36218587134235440
-0.00725873801294432  0.04717008008163432 -0.05177425433688878  0.08614693547206244 -0.03190775382445838 -0.02178138910774450  0.36340511972833867
 0.00789558385796209 -0.06977355429140113  0.07448927122627577  0.07710973659419672 -0.04203377611016731 -0.02858103880060567  0.36489377752373890
 0.09799731218941966 -0.34482008267905850  0.24123048095795520  0.06750615649128801 -0.04624903460938284 -0.03322567707877717  0.36665184472855500
-0.17534564992683702 -0.02981857778046942  0.25690691680001065  0.06001633989669283 -0.07252356387132994 -0.04591292744746139  0.36740446232939367
-0.13128479936015985  0.42721070248368480  0.23592896120801077  0.05196014207705464 -0.09288732934678362 -0.05644516640145594  0.36842648933964817
 0.33502844275328286  0.35418510899757020  0.35174705676842266  0.04601770776572994 -0.13531036558496884 -0.07502001744596318  0.36844306674592530
-0.03403551405433695  0.42691623222901500  0.60436120348124630  0.04218903696271870 -0.19979267258588557 -0.10163748058098310  0.36745419454822476
-0.13171365776208593 -0.04432411687389612  0.34644553701847800  0.03047169335149654 -0.18194866032236960 -0.09823950676864193  0.37021771135701853
 0.05509138632766621 -0.85031862069389940  0.15192605552389100  0.01762486941428035 -0.16456799323821486 -0.09480126822486475  0.37300057089114160
-0.04341234738067540 -0.40699361106494175 -0.27919120927798285  0.00899332343982336 -0.14545809840324170 -0.09151329970455982  0.37571124239157840
 0.03794699811553319  0.22698205501033375 -0.94690625738714350  0.00457705542812557 -0.12461897581745006 -0.08837560120772708  0.37834972585832870
-0.03081669571812203  0.14943978473159280 -0.73162635723533810 -0.01557084410861501 -0.11023341905557096 -0.08467708734844144  0.38125761873449520
 0.00861642651697824  0.05649346884188379 -0.54504327519773930 -0.03150346568259637 -0.09411863454287339 -0.08112884351262800  0.38409332357697523
 0.00954585724914156  0.02103583381441593 -0.25136220994235836 -0.06316771878162053 -0.08445741585408836 -0.07701978431436163  0.38719843782887130
-0.05413829805862500 -0.04714322581381796  0.14941683853080498 -0.11056360340568745 -0.08124976298921584 -0.07234990975364229  0.39057296149018310
 0.09164879963251138  0.00679573366404113  0.15050077224704590 -0.09924823989234247 -0.05395707457951169 -0.06977302661926253  0.39294203554751760
-0.00536230397129751  0.09675287004602542  0.14695021291694602 -0.08748012863549624 -0.02493515841898907 -0.06734641350835500  0.39523892157116580
-0.04775288625537332  0.05228834022581057  0.16069581710311434 -0.07740169496040868 -0.00236680808237897 -0.06435898503499454  0.39780521700422990
 0.01692205355019559 -0.00449785656651474  0.19173758480555075 -0.06901293886707967  0.01374797643031858 -0.06081074119918112  0.40064092184670985
-0.00858448989741118 -0.01529896618498051  0.15822919148925538 -0.05431822019021747  0.05394779648784782 -0.05935548878970726  0.40247117708521246
 0.02806415530776665 -0.03591632671725348  0.12623987906778494 -0.04131317909511386  0.08769405072146452 -0.05733942101778043  0.40457084173313096
-0.04009021665498222 -0.01989894009935353  0.08858127956602047 -0.02200217541647703  0.14552534049991290 -0.05741634467219319  0.40566505677707190
 0.01668896853944904  0.00083361934361269  0.04525339298396195  0.00361479084569304  0.22744166582319286 -0.05958625975294549  0.40575382221703510
-0.00278043938446686  0.00396891423696352  0.02308357382825462  0.00569758435548881  0.21947141479105880 -0.05394502449079250  0.40959497666349276
 0.03128663698705567  0.01737287295845227  0.00679140214434925  0.00829333740287253  0.21134586668311722 -0.04845405925211176  0.41336394307626390
-0.04842784280776660 -0.00754634345251445 -0.03143644853329983  0.00897469939375094  0.20379989515235603 -0.04240227865097806  0.41740231889845114
 0.02833560102588871 -0.06177621479075900 -0.09159997820469260  0.00774167032812403  0.19683350019877510 -0.03578968268739139  0.42171010413005416
-0.01822003146055101 -0.00661723273728368 -0.06989843937291253  0.01365324595093043  0.18770409601228033 -0.03127007815014431  0.42501243975767990
 0.00529962803725118  0.08710632751181382 -0.05160518101354056  0.01765043051723150  0.17915426840296583 -0.02618965825044426  0.42858418479472160
 0.00686922241890423  0.03690492256238644 -0.02059204676469663  0.02879221977196589  0.16844143156073738 -0.02320222977708378  0.43115048022778560
 0.03180538394980450 -0.03963007985096230  0.02314096337361928  0.04707861371513357  0.15556558548559488 -0.02230779273006286  0.43271132605687200
-0.05685652712188422 -0.01788675858288965  0.01940275042645540  0.03870097996107336  0.15076219976492802 -0.01360220534013664  0.43802456089245280
-0.02064881595835315  0.01908670920975006  0.01483906952720146  0.02927724405026721  0.14653839062144150 -0.00433580258775747  0.44360720513744940
 0.07067423136870862 -0.00077950363401306  0.01335607696516742  0.02375761453834426  0.14015157224504102  0.00283760873828214  0.44818439977846850
-0.03050754778627350 -0.03931923446860412  0.01495377274035326  0.02214209142530450  0.13160174463572652  0.00791802863798217  0.45175614481551010
 0.01450776429262449 -0.00816844740537385  0.00505418311874959  0.00595624487347788  0.13112437738088759  0.02080959888058753  0.45908027885904580
-0.03146767855019546  0.02919091936721450 -0.00016188742614641 -0.00632549527946553  0.12848400089313464  0.03160817769685331  0.46539896329860403
 0.03959606841255314  0.04337955122163725 -0.02285708912353352 -0.03317755887119581  0.13391608475985725  0.05021790685602441  0.47547003674465627
 0.01239158647411136  0.09843186686465387 -0.06303142197341172 -0.07459994590171291  0.14742062898105532  0.07663878635810079  0.48929349919720244
-0.04827119571812212  0.00097883842420944 -0.03797274929003319 -0.06164514557596583  0.13079834101726534  0.07390805591489555  0.48911285522775005
-0.03321097000281364 -0.16630365829381744 -0.02003372110633950 -0.04798427536541440  0.11473679384670547  0.07113753334513968  0.48893129757653930
 0.08324614289960881 -0.07297903153438740  0.02447618208200633 -0.03695849383864706  0.09658253354593418  0.06851551701341184  0.48875314983207240
-0.04394571043184853  0.06745557212349423  0.09555696027500431 -0.02856780099566378  0.07633556011495142  0.06604200691971195  0.48857841199434915
 0.02858268127686633  0.03207334845295853  0.06747388294907852 -0.01034282330234852  0.06389869841158431  0.06301426400045071  0.48839094821140900
 0.01853359238666460 -0.00440402845794980  0.04618532513166577  0.00524706570718267  0.04936912357800575  0.06013502731921745  0.48820689433521260
-0.05714160982706191 -0.03679423783371382 -0.00046072470453557  0.03067123956704585  0.04264966047204283  0.05670155781242283  0.48801011451379890
 0.00171177523741745 -0.12561398027606396 -0.07246426655952550  0.06592969827724103  0.04374030909369553  0.05271385548006681  0.48780060874716790
 0.02852069284281991 -0.00383583826652664 -0.04983235984787411  0.06448610626989232  0.01568322393509714  0.05079457821192832  0.48763859685466215
-0.08855668242965067  0.19568569626569068 -0.02995877803687310  0.06406553650382682 -0.01446657435371270  0.04902380718181780  0.48747999486890026
 0.14060684249718610  0.10506493995049583  0.00020901244713756  0.05982699575601926 -0.03680626091490691  0.04669880332614592  0.48730866693792120
-0.00319447445200221 -0.01031036513677806  0.04067101160415787  0.05177048402646959 -0.05133583574848546  0.04381956664491266  0.48712461306172470
-0.08345156218941967 -0.03330043648821134  0.04271450096978997  0.05796283398260500 -0.09501314436231514  0.04300875502789690  0.48698805305965354
-0.01893702397411124 -0.09371718955417735  0.03871486412213407  0.06033721295699834 -0.13088034124852915  0.04164371058531975  0.48683876711236485
 0.07067393561553315 -0.01445566490279810  0.05726848133902025  0.07696045361707674 -0.19589527191499428  0.04234709120696010  0.48673697503920155
-0.02555533239459735  0.13614878644003764  0.09837535262044851  0.10783255596284017 -0.29005793636171050  0.04511889689281792  0.48668267684016320
 0.00638908616353090  0.02049781060969594  0.05531233385699642  0.08552718254760547 -0.27543977741503800  0.04017123514736719  0.48645112908984180
-0.00405410206815139 -0.16819763729752726  0.02492409168709826  0.06130930781080352 -0.26103173101843180  0.03537207963994442  0.48622299124626400
-0.00279080512408197 -0.08428740420178259 -0.05276706070452803  0.04422898517563313 -0.24583953390967014  0.03001869130696031  0.48598212745746916
-0.00281859584501778  0.02922608273768713 -0.17776112331788240  0.03428621464209430 -0.22986318608875300  0.02411107014841482  0.48572853772345690
 0.00509087499999999  0.03225872226301632 -0.12621832163787830 -0.00229426297640354 -0.21681332856639135  0.02027187405408681  0.48552244186356996
 0.00374077439521333  0.04953846970807720 -0.08701780047080973 -0.03173718849326983 -0.20297932033187420  0.01587844513419743  0.48530362005846556
-0.00959713510258887  0.01364728653578245 -0.00175526134819819 -0.08781782109509509 -0.19207180239591248  0.01355344127852554  0.48513229212748640
-0.01232538929262442 -0.05146729145465014  0.12956929572995635 -0.17053616078187930 -0.18409077475850600  0.01329686248707114  0.48500845807063220
 0.02680458385796209 -0.00751867521414724  0.08898806149887450 -0.15384122423045918 -0.16518793663903364  0.00532081626430816  0.48470737446249496
-0.01219313667647528  0.06994303657377265  0.05742613694495460 -0.13667719115997068 -0.14550094780740577 -0.00320946278401619  0.48439356490914040
 0.00537650345835319  0.02233217305982204 -0.00779630957333132 -0.12126385013229884 -0.12874044927433330 -0.00967131676812305  0.48412724922991096
 0.02193289013482853 -0.05786265162837988 -0.10667927805598329 -0.10760120114744363 -0.11490644103981615 -0.01406474568801243  0.48390842742480644
-0.04375126513482851 -0.01645247770242424 -0.07993946835833306 -0.08740488051039016 -0.09015062232323298 -0.02617764203921038  0.48351235606841900
-0.01745442075317543  0.04459611257683405 -0.05752981126226619 -0.06895925191615333 -0.06832129390520517 -0.03622211332619084  0.48316377858615644
 0.05641387657388635  0.03235313524537535 -0.01895980465256353 -0.04397995166971823 -0.03557015500511131 -0.05398605204447987  0.48263795155261070
-0.00899857071812203  0.02894478786767888  0.03577055147077493 -0.01246697977108482  0.00810279437704861 -0.07946945819407747  0.48193487496778137
-0.01527268750000006 -0.00743484736352812  0.03018966214115359 -0.00533800243842791  0.01101499212949969 -0.07614341968265828  0.48189330271396047
-0.00175384469223333 -0.06561903475158629  0.02594797122917794  0.00257571500826264  0.01375977701340490 -0.07276572417390981  0.48185514036688337
 0.00771466729482221 -0.04242752565399036  0.01670832378113268  0.00756074247864224  0.01712935522856411 -0.06958081520376062  0.48180425207458910
-0.00771460479482223 -0.02173986681475113  0.00247071979701780  0.00961707997271087  0.02112372677497729 -0.06658869277221068  0.48174063783707743
 0.00931175664423564  0.00829228840321985  0.00688574353953568  0.02260343725798970  0.02278633786492040 -0.06287708118359298  0.48172451747369094
-0.02428558270517770  0.05927351599822788  0.00857580482236125  0.03266110456695756  0.02507374228611749 -0.05935825613357451  0.48169567116508720
 0.03567513971372643  0.03207174111069592  0.02043556445347637  0.05364879166713560  0.02502938625084450 -0.05511994192648832  0.48171431873060855
-0.02084409050219775 -0.00291402185623004  0.04246502243288103  0.08556649855852380  0.02265326975910143 -0.05016213856233435  0.48178046017025494
 0.01303883155239328 -0.00884954582534717  0.02654064947881982  0.07669281626138227  0.02897940176198470 -0.04788950528785215  0.48166935205861840
-0.00067512730556879 -0.01828531924951119  0.01515069227565742  0.06741656773350460  0.03593032709612193 -0.04580965855196920  0.48154551800176430
-0.01046714520517774 -0.01465798386827496 -0.01316193489249995  0.05964271683214568  0.04054949197378911 -0.04301032265901850  0.48146917781903550
 0.00144055051294436 -0.01574531234101633 -0.05839723202565229  0.05337126355730551  0.04283689639498619 -0.03949149760900003  0.48144033151043170
 0.00218181250000000  0.00076272422989520 -0.04047626504972356  0.04149278600712646  0.05382654931080961 -0.03865784264865333  0.48123423565054470
 0.03229921969223337  0.02745744165157683 -0.02714674433098430  0.03111670608346615  0.06248444177016295 -0.03710469853123888  0.48107563366478273
-0.05657047791035545  0.01613494857769552  0.00331828709980802  0.01513360188446697  0.07984458272414260 -0.03823672450349616  0.48073978212773755
-0.02181818749999999  0.00345815220048446  0.05091882924265343 -0.00645652658987112  0.10590697217274855 -0.04205392056542518  0.48022668103940880
 0.07269920927906413 -0.00416431543984161  0.03456877479447600 -0.00712095558937239  0.09949212809931934 -0.03584992542573499  0.48037508428208850
 0.02807860479482228 -0.01633465134280376  0.02236687859756315 -0.00786166579790922  0.09326078899341970 -0.02983871682464404  0.48051076157955080
-0.08821955627686640 -0.01153211182347806 -0.00531615495090524 -0.00831769065866257  0.08634460002525839 -0.02310801906648535  0.48069393275113825
 0.02205147675757112 -0.00872844757543754 -0.04848032585092919 -0.00848903017163243  0.07874356119483539 -0.01565783215125890  0.48092459779685080
 0.01027219990815763  0.00153512074303230 -0.03386810559599553 -0.00972282986670068  0.07369841684592948 -0.01089281532570420  0.48097801329128020
 0.01837667855019556  0.01835918326828078 -0.02279395355600650 -0.01067194421398544  0.06796842263476190 -0.00540830934308175  0.48107892265983465
-0.03068801010258887  0.01069914809107008  0.00148444882280048 -0.01268351874336859  0.06479432290511138 -0.00260897345013104  0.48100258247710580
 0.01426010479482228  0.00191804436638228  0.03896710154042544 -0.01575755345485013  0.06417611765697790 -0.00249480764685208  0.48074899274309346
-0.00553285479482229 -0.00267917458035358  0.02717082111772317 -0.01486643278572160  0.05401918434503787  0.00764054935804611  0.48115690734008953
 0.01468807260258890 -0.01500516532210946  0.01800378993462899 -0.01406280971716805  0.04317740117083618  0.01849539552001206  0.48161231581121056
-0.01905169760258889  0.00151301295525469 -0.00097573299644448 -0.01293264115772829  0.03489151247815154  0.02666507159230626  0.48189047473104830
 0.00950679344760669  0.03534340139377662 -0.02976774767549724 -0.01147592710740233  0.02916151826698396  0.03214957757492870  0.48199138409960257
-0.00368866844760669  0.00456374191954755 -0.02193904460224094 -0.01123789742004620  0.01389279599200981  0.04765527475917039  0.48275379779916516
 0.02627221665498226 -0.04470479528670716 -0.01552483112620939 -0.01067332224180387  0.00117996819855272  0.06047580185374032  0.48333896194744420
-0.04124555946274888 -0.02497190142211338 -0.00383167060655740 -0.01132743142653137 -0.02107158765871094  0.08331752014992950  0.48458563042673153
-0.01309087499999995 -0.00138869828747078  0.01314043695671504 -0.01320022497422869 -0.05286187157978116  0.11618042964773790  0.48649380323702680
 0.04885581061553319  0.00782495502649619  0.01041124594273044 -0.01052482656093291 -0.04905313772714218  0.11164374442874114  0.48593320827457320
 0.00058461489741115  0.02414650728636365  0.00610198244445799 -0.00772795843569832 -0.04533398943137883  0.10704322728468177  0.48536761595416160
-0.02719433270517776  0.01394101954506520  0.00768962973718939 -0.00538442144700007 -0.04128050328573125  0.10268093412810086  0.48482067402755263
 0.01090900000000001  0.00163645961036738  0.01517418782092462 -0.00349421559483816 -0.03689267929019942  0.09855686495899835  0.48429238249474610
-0.00611736143905791 -0.00283425624980898  0.00065117522493233  0.00008784509153031 -0.03375262113732890  0.09354373176504471  0.48369448674468750
 0.03884496969223339 -0.00704885685709281 -0.00643652628893062  0.00321657464136244 -0.03027822513457414  0.08876882255856951  0.48311524138843120
-0.06151932606094208 -0.01221929260076490 -0.04127318653138019  0.00803715902540113 -0.02805159497448067  0.08310484932724310  0.48246639181492273
 0.05321999811553321 -0.02968281029494288 -0.10385880550241636  0.01454959824364639 -0.02707273065704846  0.07655181207106548  0.48174793802416170
-0.05322004386870866 -0.00126792156822497 -0.06288390064123543  0.01474794926160174 -0.02143714081885537  0.07331680692681420  0.48128925070860770
 0.00436381250000001  0.04598474460918309 -0.03115661406696556  0.01528803053166208 -0.01546721313077804  0.07032002577004134  0.48084921378685600
 0.03140141886870866  0.02293386823894016  0.03508325380305950  0.01455275713838325 -0.01074505128536200  0.06643418058841730  0.48033957264785220
 0.00107882563984006 -0.00869660108137664  0.13583570296883970  0.01254212908176523 -0.00727065528260723  0.06165927138194205  0.47976032729159590
-0.01527275000000000 -0.00830759360375800  0.10778544523851030  0.01529118942639893  0.00086046624090842  0.06020239428739312  0.47944084841054646
-0.00189646304799773 -0.01314448165940939  0.08198800919771244  0.01676489510769345  0.00774382192176280  0.05785645316799300  0.47905176531224447
 0.01066194875537328  0.00152193793015021  0.04778292815118946  0.02299828919023969  0.01928390312337808  0.05882854416051916  0.47892244868914930
 0.00272819169003566  0.03209395888499814  0.00517020209894130  0.03399137167403764  0.03548070984575424  0.06311866726497158  0.47905289854126054
-0.01018175000000014  0.00330546741965314 -0.00606476561993785  0.02722105521616791  0.03429838032774811  0.05502572594657008  0.47821388670979780
-0.00471507563983999 -0.04658161722596931 -0.01293619794585691  0.01858665078106299  0.03308170614281800  0.04717100861564702  0.47739352527213760
 0.01362313394980445 -0.01772768015457011 -0.03609256605892808  0.01690911738677806  0.03199320799981720  0.03842722725987277  0.47650355961722507
 0.01319539939521338  0.02841475800757104 -0.07553386995915135  0.02218845503331310  0.03103288589874571  0.02879438187924733  0.47554398974506010
-0.03044102135796221  0.01003563171235334 -0.05419896610372628  0.00150439649380341  0.02959420429688095  0.02247956861054819  0.47484418634810194
-0.00175378219223334 -0.02345780863543352 -0.03801778695528205 -0.01222279100488631  0.02828369873694549  0.01527569131699786  0.47407477873389137
 0.02070106365278437 -0.00054386101747999 -0.00260264535216224 -0.05191337468962077  0.02649483367621676  0.01138984613537381  0.47356513759488750
-0.02118119990815765  0.04379219065146291  0.05204645870563316 -0.11756735456039993  0.02422760911469473  0.01082203306567604  0.47331526293109005
 0.02660959280776658  0.00817986159708641  0.03491343765170705 -0.08632462072782018  0.02374564651441654 -0.00212884442687568  0.47209592658371860
 0.01066201125537331 -0.04550783107127001  0.01401520588562023 -0.05012644610060794  0.02339185995606765 -0.01596878594427857  0.47080698601909490
-0.03649218561553325 -0.03173734836697159  0.00716893179851976 -0.03242222829286347  0.02255971389692548 -0.02649069534975519  0.46977781192967770
-0.00611746969223334 -0.02433521840273773  0.01437461539040564 -0.03321196730458678  0.02124920833699003 -0.03369457264330551  0.46900840431546700
 0.03038872791035542  0.00683392754793759 -0.03086232102149318  0.03501868016692857  0.02172396473829840 -0.05328151435970981  0.46726953501768237
 0.01542933458964455  0.04325867512268693 -0.04940375040103806  0.08475537081897615  0.02172036163881347 -0.06955042396418780  0.46579043219510413
-0.04246702020517775  0.06006925041205051 -0.16757416835914010  0.20351244795426238  0.02350202050057238 -0.09820239799151977  0.46334186768895180
-0.00596082260258883  0.12938013954450583 -0.38537357489579926  0.39128991157278720  0.02706894132357509 -0.13923743644170564  0.45992384149922516
 0.03416773801294430  0.00275719000123100 -0.23135253415058374  0.32147978607782524  0.02397317380239582 -0.13405824931240204  0.46012389556858890
 0.06020691541035551 -0.14334248106184488 -0.10795768822095753  0.24582306334445597  0.02100902769958068 -0.12880843720334523  0.46034260003175503
-0.12173593645773728 -0.21675403784815309  0.12973567280295073  0.19198613855621450  0.01755366377606633 -0.12382220110701081  0.46049170027766906
-0.02560109385002927 -0.49408320409899800  0.48172754892114095  0.15996901171310074  0.01360708203185277 -0.11909954102339868  0.46057119630633060
 0.11697263437090641 -0.01038149127020338  0.40715155947779240  0.04651929032788316  0.01149375015207191 -0.11339320186865037  0.46091045881019893
-0.23203386396567005  0.75354170028867500  0.32511991796741835 -0.04511063311220666  0.00888920045159184 -0.10795043872662441  0.46118011709681495
 0.34074746050414140  0.47166409585479924  0.27091314877473927 -0.21817315109440039  0.00811790061554446 -0.10152399651346221  0.46170954185863744
 0.06877634368819943  0.20070495952031062  0.24453125189975497 -0.47266826361869790  0.00917985064392977 -0.09411387522916377  0.46249873309566640
-0.33943885486711500 -0.11100245450191082  0.11430551782101653 -0.42325279591970777  0.00340001903528353 -0.09037489421668791  0.46231846264912160
 0.11259575153565760 -0.65468198832679250  0.01802856848429024 -0.37192240006748295 -0.00287103039406192 -0.08689948921693438  0.46206858798532424
-0.01905887584220402 -0.33262978510869157 -0.20494697036484472 -0.32773861337597370 -0.00730882995897468 -0.08244040514604464  0.46207847979673367
-0.01363470843686012  0.11111112658855232 -0.55462109872638820 -0.29070143584517980 -0.00991337965945475 -0.07699764200401865  0.46234813808334960
 0.06263120351526137  0.10070359553419699 -0.43144965378030940 -0.22699274982475870 -0.01935971099696637 -0.07522601913381519  0.46164833468639144
-0.03589255485173043  0.11039030920544943 -0.32405886949078500 -0.17043067296505300 -0.02697279247004529 -0.07247071719247551  0.46120829776463980
 0.02944707679250521  0.04508428062101058 -0.15777385785399586 -0.08719708761572002 -0.04142765558015577 -0.07338655552295831  0.45979879915931400
-0.02854927120921162 -0.06410412056193963  0.06740538113005808  0.02270800622324030 -0.06272430032729778 -0.07797353412526357  0.45741983887041380
 0.02616497126611977 -0.00952127765057717  0.07278837138160740  0.03307367526440685 -0.05848706839074631 -0.06885963071141513  0.45865895884060410
-0.02049224811553315  0.07942519276413437  0.07416312126889549  0.04510992669290621 -0.05438916389365635 -0.06000930331028900  0.45982847459354190
 0.01570065530776651  0.04012485940397591  0.09049682784455487  0.05091147977364981 -0.04977128231360756 -0.05017529683802668  0.46125775682168646
-0.01493512384721552 -0.01265247234781767  0.12178949110858550  0.05047833450663764 -0.04463342365059994 -0.03935761129462814  0.46294680552503753
 0.01309081249999995 -0.01513296136850496  0.09725456798339226  0.07331340024331572 -0.04143614587996610 -0.03221106602305209  0.46366639254481457
 0.00106506365278444 -0.02240735085130672  0.07549150623319872  0.08991376763223802 -0.03771889102637344 -0.02408084168033984  0.46464574603979810
-0.01192206595835324 -0.01179066024306931  0.04338371699996844  0.12978234602485053 -0.03594221706515455 -0.01962175760945007  0.46465563785120745
-0.01231131480556882  0.00315984892836315  0.00093120028370132  0.19291913542115320 -0.03610612399630939 -0.01883381381038280  0.46369606797904240
 0.02714225576392207  0.00193632703116655 -0.00291426787541834  0.16921777915045083 -0.02902768444092803 -0.00434498799516177  0.46635457836596783
-0.00489586720297991  0.00122256114654837 -0.00553051435786977  0.14368771609759293 -0.02142926780258784  0.01112751689119547  0.46927285522809975
-0.00741568085576442 -0.00139364007647620 -0.01273427859141206  0.12498247966788532 -0.01577143205662142  0.02292888150573023  0.47122167040665760
 0.00959718085576441 -0.00756164268810283 -0.02452556057604519  0.11310206986132800 -0.01205417720302875  0.03105910584844249  0.47220102390164110
-0.01449301905239341 -0.00047414205907288 -0.01919599323298315  0.07575106034432500 -0.00109457586289986  0.05289021220730851  0.47679845765571480
 0.00528569529702014  0.00974113262886230 -0.01456175798177727  0.04522487745047230  0.00792444458485527  0.07105017829435203  0.48042642972621435
 0.00014269760258878  0.00828339561436723 -0.00733250803563106 -0.01077190515382612  0.02418581151914664  0.10291102639754932  0.48767248205580405
 0.00131184815058668  0.01046378661116840  0.00249175660545548 -0.09223928746857024  0.04768952493997423  0.14847275651690034  0.49853661464448373
-0.00092211605019561 -0.00093350097462751  0.00263129455863686 -0.07864909756468183  0.04416443330703067  0.14290209884345886  0.49589788788037725
 0.00629834050219785 -0.02153745845746768  0.00188704881083642 -0.06438121707940117  0.04067129837701918  0.13725615073558473  0.49326083711122950
-0.01012958155239336 -0.00778165611602375  0.00444112873800140 -0.05264251227568721  0.03705889940802276  0.13189119035433708  0.49061753144374187
-0.00140243980556880  0.01480346364130417  0.01029353434013180 -0.04343298315353989  0.03332723640004139  0.12680721769971590  0.48796797087791416
 0.00881788740815769  0.00443712220640032  0.00383642094338234 -0.02478444188651812  0.03004067284506770  0.12067458457302144  0.48534175391048750
 0.01435049220298001 -0.01341418640449444  0.00028870403379305 -0.00866507630106302  0.02663484525110906  0.11482293917295344  0.48270928204472070
-0.02932396001074667 -0.00333121722160581 -0.01411702838524042  0.01689330142926657  0.02367411711015809  0.10792263330081212  0.48010015377735493
-0.00872724999999991  0.01429781052204431 -0.03938077631371806  0.05189069130447062  0.02115848842221478  0.09997366695659748  0.47751436910838980
 0.03257054041035539  0.00376456432004250 -0.02412185869157917  0.05166120828174345  0.01698172596122575  0.09593835477404963  0.47484146494416135
 0.01177901010258898 -0.01167288427444129 -0.01290030204489399  0.05248914055577245  0.01268569946125179  0.09218403031812827  0.47216230588159286
-0.03785634396055114 -0.00880760036958152  0.01338889089068029  0.04937074521760684  0.00883477241428549  0.08738104539013360  0.46950649041742537
 0.00950666844760671 -0.00875477419204912  0.05474572011514366  0.04230602226724662  0.00542894482032685  0.08152939999006557  0.46687401855165855
 0.00425933385796215  0.00179428711800869  0.03986936515950436  0.04996919446890866  0.00036198345332249  0.07959140875166439  0.46415442719062827
 0.00242886374462674  0.02196576347424552  0.02811627571423628  0.05368603905837607 -0.00425987846067420  0.07660475704118985  0.46145817942799890
-0.00363637500000002  0.00622589798662697  0.00470700069873519  0.07213077879986574 -0.01054287414771661  0.07753175949238211  0.45867481217010570
-0.00315628449780214 -0.02129640722296276 -0.03035845988699892  0.10530341369337758 -0.01848700360780474  0.08237241610524113  0.45580432541694870
 0.00780530470297986 -0.00484604875303836 -0.02192244370217220  0.08351079559099515 -0.02023169742871766  0.07260711654350636  0.45325897304644575
-0.00193477800219778  0.02286843492850733 -0.01428805806655093  0.05981960077630832 -0.02175037012206870  0.06312280470839807  0.45070736577760273
-0.00111704460039105  0.00854463101746484 -0.00366194649239557  0.04321399071400853 -0.02411256514706468  0.05258983240121645  0.44817910210716067
 0.00000000000000003 -0.01428695557776575  0.00995589102029390  0.03369396540409577 -0.02731828250370558  0.04100819962196150  0.44567418203511927
-0.00000000000000005 -0.00536706493585163  0.01240845532805242 -0.00226982220306077 -0.02737593166132863  0.03334022100437336  0.44308214246781450
-0.00596082260258885  0.00706658963534279  0.01209133276204975 -0.03114802505783027 -0.02827710315059661  0.02462358191471189  0.44051344649891060
 0.01032444760258887  0.00638669869666024  0.02211082232998045 -0.08646999020984358 -0.02603020644084674  0.01982059698671721  0.43785763103474296
-0.00276642739741110  0.00930650026104494  0.04246692403184450 -0.16823571765910064 -0.02063524153207901  0.01893126622038931  0.43511469607531167
-0.00159719760258892 -0.00120793348764210  0.02424626407173628 -0.15131198067176960 -0.02698902708773778  0.00343597927946758  0.43269689549853410
 0.00596076010258889 -0.02163743920202543  0.01085126660082781 -0.13381872291298016 -0.03418633497504147 -0.01310796813352746  0.43030243852015737
-0.01032433934941340 -0.00506339257972841 -0.02055334845995342 -0.11845094560923922 -0.03823557466332731 -0.02573826138485573  0.42782086204651710
 0.00819513279702007  0.02477557762363312 -0.06996758111060741 -0.10520864876054670 -0.03913674615259528 -0.03445490047451720  0.42525216607761290
-0.00780566295615542  0.00510917906394343 -0.05216900589097010 -0.08403395086311871 -0.05178666810628976 -0.05777749573877251  0.42300860449136270
 0.01192169095835323 -0.02856063119085804 -0.03767029105427765 -0.06498473342073917 -0.06128852186096638 -0.07718643684136102  0.42067792340984866
-0.01483047445200229 -0.00996899752019816 -0.01085632961055124 -0.03800311492962412 -0.08253912608006947 -0.11120133411854335  0.41867237671098834
-0.00106475115278440  0.02043167204148560  0.02827287844020914 -0.00308909538977356 -0.11553848076359900 -0.15982218757031944  0.41699196439478150
 0.01192145770517774  0.00676041966946382  0.02144096044577853  0.00222080041018343 -0.10469090178844054 -0.15393287048538712  0.41409813404322393
 0.00833787615278441 -0.01514287129048581  0.01578387668265851  0.00822129341443203 -0.09425135578651656 -0.14796486796619920  0.41119804879332630
-0.02025969211113762 -0.00632377599042115  0.00574225187781623  0.01164444256469931 -0.08228900999731800 -0.14229052348546872  0.40832130714182970
-0.00092199105019552  0.00681644953326498 -0.00868391396874831  0.01249024786098525 -0.06880386442084484 -0.13690983704319570  0.40546790908873390
 0.01323361835576432  0.00382999751627429 -0.00674674987973440  0.02295483136890489 -0.06100188502023550 -0.13043320388134844  0.40252739154037454
-0.00494823989741111 -0.00032286330756888 -0.00488985081796933  0.03084207102284322 -0.05167710583235156 -0.12425022875795860  0.39961021759041600
 0.00218181249999997 -0.00012262720184277 -0.00273339859644070  0.04834808888841522 -0.04803549282033142 -0.11697130691499450  0.39660592414519386
 0.00422098989741113 -0.00007550851596077 -0.00027739321514849  0.07547288496562090 -0.05007704598417505 -0.10859643835245608  0.39351451120470800
-0.00964942855019552  0.00054305216030330  0.00106066455433828  0.06669991205027317 -0.03090873423183812 -0.10431169862975737  0.39074823264687586
 0.01183111605019555  0.00066074525548049  0.00178971955448650  0.05734236109013509 -0.01021762269222662 -0.10032061694551608  0.38800529768744463
-0.01488276789960897  0.00264770161113807  0.00479160383175635  0.05016648509414380  0.00479032267152110 -0.09523358854170054  0.38517524323274970
 0.00164944529702008  0.00815339553064695  0.01006631738614781  0.04517228406229930  0.01411510185940502 -0.08905061341831069  0.38225806928279110
 0.00722033155239332  0.00052698208336166  0.00685871660139134  0.03203596121865797  0.04464974596346953 -0.08695776713476051  0.37966602971548630
 0.00310399105019556 -0.00746948368940099  0.00456505888708964  0.02108131333916341  0.06950122389167025 -0.08376897413163605  0.37698687065291770
-0.00828527020517777 -0.01408489538202310 -0.00113948080137478  0.00198454364787202  0.11556256673605153 -0.08467030996835122  0.37463284597300280
-0.01048109469223334 -0.03578561051599780 -0.01025490246400194 -0.02525434785521621  0.18283377449661330 -0.08966177464490599  0.37260395567574145
 0.02283070770517767 -0.00118720675925095 -0.00664073930043296 -0.02210642707526387  0.17094868876831673 -0.07938867068167654  0.36936164734312926
-0.00289511301294431  0.05807682395044429 -0.00381415733299989 -0.01879535065024996  0.15942133919373580 -0.06940922475690453  0.36614268260891790
-0.00838968634721563  0.02528748167119584  0.00195171767349828 -0.01609317938214749  0.14655890011778352 -0.05833383211255827  0.36283659837944304
 0.00081784165498222 -0.02420808754961458  0.01065688571906155 -0.01399991327095645  0.13236137154045980 -0.04616249274863770  0.35944339465470440
 0.00170138049145126 -0.01135516902173970  0.00839246280450033 -0.00963418217718123  0.12314646481490596 -0.03808128222455679  0.35637532531261950
-0.01435088394980442  0.00753157098106968  0.00632918912670157 -0.00587735624031745  0.11259646858798072 -0.02890412498090160  0.35322013647527095
 0.02428598671152861  0.00389978267562330  0.00351521627740158  0.00015193467913052  0.10702909421282530 -0.02381709657708605  0.35039008202057610
-0.00925975894980443 -0.00010878251282359 -0.00004945574339964  0.00845369058116268  0.10644434168943971 -0.02282019701311012  0.34788516194853480
 0.00092189954384458 -0.00271119723079515 -0.00081248031495841  0.00827449170976952  0.08726419126034620 -0.00655872880934993  0.34416682384114260
 0.00145450000000001 -0.00740251542743189 -0.00129934396186555  0.00824735570694432  0.06674895132988126  0.01079868611398454  0.34036136623848670
-0.00542826789960893 -0.00429793970958278 -0.00281685421063775  0.00765271335267886  0.05121633325118617  0.02406597219747938  0.33688104301848450
-0.00092217855019552 -0.00056569568203457 -0.00536501106127499  0.00649056464697315  0.04066633702426090  0.03324312944113458  0.33372585418113580
 0.00450626010258885  0.00082405832341570 -0.00406674242910366  0.00744637847846050  0.01152094289162768  0.05768485532457406  0.32935724730843630
 0.00785730239741115  0.00387646789231931 -0.00300385404556714  0.00783468595850761 -0.01264182938923570  0.07803645236817389  0.32531377481839036
-0.01594770655239337  0.00072376242292796 -0.00106251461502730  0.01034095597574778 -0.05539999957580706  0.11365261805155799  0.32005688429299340
-0.00058448989741111 -0.00514033493417176  0.00175727586251589  0.01496518853018102 -0.11675356766808640  0.16453335237472630  0.31358657573224530
 0.01051908039960892 -0.00088538000711377  0.00129864240068055  0.01168507728728224 -0.10870816598930368  0.15844594097859727  0.31164480493024780
-0.00344149220297992  0.00517453022809285  0.00153265305637302  0.00785493549823056 -0.10073956089071600  0.15227574837194063  0.30970718593905827
 0.00092230355019551  0.00449825554789765 -0.00081831932611200  0.00607753565313634 -0.09248434705299277  0.14641449944888496  0.30775407217898976
-0.00853258819662895  0.00595585180806497 -0.00575427474677450  0.00635287775199958 -0.08394252447613390  0.14086219420943025  0.30578546365004206
 0.01342868865278435 -0.00055026669799540 -0.00104294213225486 -0.00103271737881413 -0.07647034027562241  0.13415689544609920  0.30387468238580270
-0.00640278565058657 -0.01216020131436975  0.00138615814754810 -0.00636557056567038 -0.06871154733597529  0.12776054036636914  0.30194840635268416
 0.00257137384721558 -0.00472243489456381  0.01233266545519021 -0.01935936098220357 -0.06202239277267554  0.12021119176276268  0.30007995758427386
-0.00324651789960890  0.00717971760722222  0.03179657979067146 -0.04001408862841371 -0.05640287658572313  0.11150884963527977  0.29826933608057166
 0.00271413394980443  0.00242055442645516  0.01947309834951281 -0.03207780929987352 -0.04679141563251690  0.10710953791970149  0.29624290028691590
-0.00072735825317544 -0.00863250537664839  0.00957349859767045 -0.02308542863977738 -0.03689334594017504  0.10301916988772417  0.29420096972438100
-0.00086971434941344  0.00380357679239396 -0.00937215077023621 -0.01803447180698919 -0.02806491462418056  0.09777580833187050  0.29221686642655437
-0.01183125779702002  0.03057412439169288 -0.03736384975420717 -0.01692493880150892 -0.02030612168453343  0.09137945325214038  0.29029059039343580
 0.02070108039960889  0.00384771870593459 -0.03159523196323721 -0.00110581181835285 -0.00855538397863246  0.08928612858431487  0.28814850007036363
 0.00042803030776664 -0.03438640705337823 -0.02522527734741793  0.01077189133749528  0.00212571535092114  0.08603981039261296  0.28606423701199957
-0.01351895106094211 -0.02967313681890530 -0.02109954231439849  0.03735918847101923  0.01679875944672861  0.08709652261281561  0.28376415966368185
 0.00058441065058667 -0.03864574494775040 -0.01921802686417890  0.07865607958221896  0.03546374830878991  0.09245626524492279  0.28124826802541036
 0.00537662845835312  0.00345804032151499 -0.00896096990760924  0.06505601861002343  0.03923059648218319  0.08175687975328816  0.27953780628224560
-0.01172699566133312  0.07049437379207314 -0.00111030125782523  0.05100664886669520  0.04252198654493299  0.07136643794525449  0.27781184977020180
 0.01797304271592430  0.04448117061324663  0.01572113081562248  0.03863412228552045  0.04758781043347493  0.05982300261334446  0.27614372052286610
 0.02342925534282001  0.01973791903234077  0.04153332631273389  0.02793843886649915  0.05442806814780899  0.04712657375755803  0.27453341854023860
-0.05206421780776665 -0.00974485643515832  0.03382885642197615  0.01098469156999668  0.05464604866961799  0.03873317531367616  0.27270730226765750
 0.02112942320737555 -0.06251118275060165  0.02636471248465645 -0.00429221256435233  0.05663846301721912  0.02918678334591790  0.27093901325978450
-0.00615629690595986 -0.02838211432090368  0.01800365987872852 -0.02582718057618252  0.05200860017229512  0.02394342179006420  0.26895490996195780
 0.00587054344760667  0.02267142725855600  0.00874569860419236 -0.05362021246549389  0.04075646013484600  0.02300309064611505  0.26675499237417730
-0.00164932029702009  0.01056197515176971  0.00283504605065107 -0.05805783200703401  0.05421899504170522  0.00600363137842406  0.26536050468150363
-0.00494823989741111 -0.00701508418653032 -0.00035084793749721 -0.06465281459331301  0.06945596377435656 -0.01214882141314331  0.26402384425353800
 0.01090906249999998 -0.00418675554099005 -0.01370567933005072 -0.06319640868625497  0.07807065531448280 -0.02599824379280613  0.26247136953561870
-0.00296135594760665 -0.00188709606878956 -0.03722944812700948 -0.05368861428585980  0.08006306966208392 -0.03554463576056438  0.26070308052774566
-0.00125957144980448  0.00238558361871042 -0.02280222587174029 -0.07422901081407410  0.10677015895399333 -0.06115015585206449  0.25974022141497930
 0.00732485594760668  0.01079913993928569 -0.01327885057191818 -0.08671801884895128  0.12685497105337762 -0.08245264553166001  0.25856154801225920
-0.01289594644980448  0.00375873427734921  0.01454593071817439 -0.12925521781243787  0.17165445809707025 -0.11981426333499740  0.25818830450464570
 0.00887013510258888 -0.00807374711172580  0.06067211799853739 -0.20184060770453383  0.24116862008507112 -0.17323500926207658  0.25862049089213860
-0.00741580585576434 -0.00202195841340226  0.03849652827326569 -0.16228462237552932  0.21844635948836394 -0.16672227310609303  0.25604677198915910
-0.00237649105019553 -0.00527610418330090  0.02210115759131783 -0.11807769409637818  0.19647385989529584 -0.16012028647403970  0.25345755831730044
 0.00993463625537327  0.02619997029411210 -0.01586628423919184 -0.09122832121027832  0.17170321414311290 -0.15385138715327834  0.25092617191015004
 0.00567548989741114  0.10461335118236766 -0.07540579721826332 -0.08173650371722971  0.14413442223181510 -0.14791557514380880  0.24845261276770775
-0.01507769644980448  0.00785431977493034 -0.05443724464641139 -0.00746540760212264  0.12700845395333760 -0.14073666436524146  0.24576323933531186
 0.03902568200854875 -0.09223440980246303 -0.03801959711142238  0.04944813311993317  0.10708433951574525 -0.13389084089796596  0.24313169316762406
-0.05907613782925970 -0.17989653663571137 -0.00461774075843979  0.17114095246404748  0.09760304871097320 -0.12580191866159263  0.24028433270998262
 0.05017830799938409 -0.46342052468742834  0.04576832441253638  0.35761305043022020  0.09856458153902137 -0.11646989765612142  0.23722115796238732
-0.04903714793184860 -0.01597809540681580  0.03276845934840115  0.30232558930121034  0.06055296599490333 -0.11177718441574977  0.23496341310989882
-0.16701079052087706  0.65987097783952040  0.01673484707540778  0.24131582427882917  0.01974320429167043 -0.10741755848666999  0.23276349552211845
 0.32547463125731670  0.48329485101948055  0.01202333352319326  0.20166198812285885 -0.01062373377874219 -0.10181483378849238  0.23034776364438440
-0.03439802216193741  0.42838266369773460  0.01863391869175758  0.18336408083329930 -0.03054784821633453 -0.09496901032121690  0.22771621747669657
-0.13622458643588237 -0.08058552728063129 -0.01701014381393535  0.08536476197146778 -0.08944511102609315 -0.09276249461904094  0.22589010120411543
 0.05435831184061049 -0.94667907187358280 -0.03235435223385567  0.00872137197604706 -0.13789955020303146 -0.08931288014776709  0.22384817064158052
