        D_1                  D_2                  D_3                  D_4                  D_5                  D_6                  S_6   
 0.04309380799031573  0.11973900674172297 -0.04504073651249015 -0.00388741070255992 -0.07813529440449750  0.05475338375011742 -0.19529659873443150
 0.03390788933983832  0.03437873402787882  0.00834296829325424  0.04945067792479255 -0.09115297690070562  0.05962658291665235 -0.18769074734224610
 0.00183939910701451 -0.05209460140571490  0.07554364862525552  0.11472645102467430 -0.11086867437914351  0.06715186881114850 -0.17779887460996968
-0.02320953345378803 -0.02583985683414037  0.05101856225974082  0.09267012613891044 -0.08204321422166298  0.05546433549461978 -0.18447015886149323
 0.01626045170705019 -0.00662627597662402  0.03323757253429586  0.07720959032192405 -0.05686831875481325  0.04519896516846330 -0.18991267478558593
-0.01430100669307326 -0.00505702643614668  0.02584897052973405  0.07022055958857844 -0.03651874923259316  0.03699497564689828 -0.19359742882161315
 0.00380748177203479 -0.00244007917097408  0.01739023973457580  0.06052638963173244 -0.01479210492031814  0.02838478312643243 -0.19765041153532908
 0.00677659359606204  0.00174695556443067  0.01157658778568328  0.06540544473847955 -0.00025492514781384  0.02160638402309300 -0.19999373927095376
-0.00207670966588483  0.00718242317438443  0.00590499638030513  0.06848758125858975  0.01504504473720175  0.01475185775857242 -0.20243188015824060
-0.00061745726060925  0.00365248767799761 -0.00244742147857264  0.07463022511200051  0.02966665191938710  0.00727264810930868 -0.20529380030209810
-0.00012308691586072  0.00111222714307109 -0.01315860657103704  0.08508953371909535  0.04293251079678646 -0.00060780942206166 -0.20838141752321881
 0.00087115800597157 -0.00263066460964315 -0.00663673584765883  0.06473192570101768  0.06575916608404230 -0.00548232912806373 -0.20974917140769544
 0.00439098306769794 -0.00868500422938098 -0.00175292042154397  0.04650696877565887  0.08821482771557226 -0.01056241448069342 -0.21124908393207795
-0.00936549333294670  0.00151989646093673  0.00369508479894621  0.03258846896155330  0.10739984063328212 -0.01607468579523651 -0.21289975668839942
 0.00766029197617432  0.01481510542045823  0.01172018255293062  0.01895260884753871  0.12472330156857384 -0.02161937519382003 -0.21447975232521216
-0.00732372893722127 -0.00218427953954831  0.00194467575080005  0.00144493296073773  0.15620169128450445 -0.02674686772731505 -0.21647306851030085
 0.00273057737152377 -0.02113082930718265 -0.00567703201191582 -0.01463807613994421  0.18435114843326225 -0.03201150234420487 -0.21839792633723312
 0.00190079031643229 -0.00921911484350866 -0.01692028393332779 -0.03792341258354263  0.22616301875544836 -0.03660946999269402 -0.22052819028826530
 0.00125847269242973  0.00038337918294683 -0.03355939901774548 -0.06833532166020231  0.28218394564037780 -0.04054024279798873 -0.22289150866126567
-0.00407468228495187  0.00733953024801523 -0.01181293312577879 -0.04697764526363998  0.23527884765635748 -0.04931444708129335 -0.22357535335579887
-0.00263892346071040  0.01872913935398683  0.00620236562425126 -0.02938423577243094  0.19604385303718497 -0.05770567124046981 -0.22438322678008213
 0.00896438353707531  0.00166512607948655  0.02599218008551794 -0.01779126065006735  0.16751084171479746 -0.06574045446223394 -0.22537453086975812
-0.00357867488169911 -0.01867861636447304  0.05195090981163167 -0.00550524382419638  0.13649026264947486 -0.07402741216632813 -0.22633395062761874
-0.00050250043800739 -0.00006747784415075  0.03509900910235493  0.00478199494640189  0.11755822173605024 -0.08075942087748626 -0.22742858002081365
-0.00023001792127359  0.01993278818642226  0.02127262860261289  0.01463226674932647  0.09771361806721472 -0.08775428045959780 -0.22852278950723110
-0.00043203836675477  0.00781056155921595  0.01304793352471090  0.02867412848496915  0.07651418113956163 -0.09394256766346332 -0.22953701538341298
-0.00724206524924071 -0.00244416447378923  0.00492217465858813  0.04644208627006934  0.05525843350167265 -0.09921998881613020 -0.23049033637846950
 0.01627791366354965 -0.00651712420000675 -0.00640003048175442  0.03696634786664083  0.03495222574567851 -0.11106724800456276 -0.23189497816157872
 0.00468364685635034 -0.01388540924404287 -0.01633312724636878  0.02955873318169210  0.01433460613465856 -0.12258637434532449 -0.23327298541982852
-0.02423997018080336 -0.00247232367409301 -0.03365638332128157  0.02472430503496854 -0.00476635341838214 -0.13234923753106620 -0.23455897705182396
 0.00917982517731213  0.01055498328864667 -0.05822602552457168  0.01898306610374263 -0.02234378462548856 -0.14128865749116410 -0.23581538701839738
 0.00149223138269974  0.00144928883652825 -0.03013043533116289  0.01824808989074214 -0.05097721667612562 -0.15663078019498683 -0.23731618674548316
-0.00355209500994889 -0.00850913820366570 -0.00724300475496316  0.01685143894933305 -0.07713044829817507 -0.17043507815236184 -0.23875570413964056
 0.00816577323792772  0.00015167101305050  0.01870405670082190  0.01680593989760462 -0.11314268982512299 -0.19063670264267460 -0.24045808402911517
 0.00155025520678258  0.01026057009586071  0.05373590888470189  0.01852451823642212 -0.15948844902157566 -0.21747028069683783 -0.24243155558717994
-0.01034125885339185 -0.00004136598073639  0.02552910673673049  0.00760760749823105 -0.13101228039261412 -0.19625618788191607 -0.24244168032070440
 0.00525014812000130 -0.01180022755883034  0.00301768501435322 -0.00248595116591327 -0.10809683917219659 -0.17860626575995675 -0.24259763725250152
-0.00144306163343680 -0.00194107903850548 -0.01937404715320321 -0.01047573431783866 -0.09306194537781310 -0.16606117811444154 -0.24296206103246826
 0.00680298381092129  0.00869064651204575 -0.04908461161016016 -0.01804242726916427 -0.07631216365605324 -0.15245424131163346 -0.24328329909442017
-0.01156726258638767  0.00156298297071892 -0.02899840454599782 -0.02944188379498957 -0.06766840629598869 -0.14376476358439955 -0.24380536593251007
 0.00744028776467086 -0.00585271065780598 -0.01295848498959705 -0.03976148044961537 -0.05851503597390808 -0.13480995775451365 -0.24431670673499828
-0.00398659680228139 -0.00107397895095071  0.00003745554832309 -0.05498399266733286 -0.04776314945111669 -0.12458999637789929 -0.24477682563896763
 0.00838827945434169  0.00373210540281795  0.01604733723593068 -0.07517991888625267 -0.03632779116150843 -0.11367860143452230 -0.24520946913778435
-0.01305393172536399  0.00134970410849822  0.01288995506126941 -0.05929940781918135 -0.03023541909674350 -0.10802620831457499 -0.24585273759483195
 0.00151981523123434 -0.00156549504956509  0.01095828097918666 -0.04609611225901356 -0.02367844970780366 -0.10197693322049811 -0.24648013894248055
 0.00823098061186412  0.00315988687136196  0.01244540703645825 -0.03671691173937496 -0.01701921588284085 -0.09542186211816714 -0.24708829840741440
-0.01171657097257817  0.01025146302945495  0.01488932235874150 -0.02653027116911327 -0.01092069960842396 -0.08904245276162723 -0.24770479161060843
 0.01882712039627222 -0.00284810201885614  0.00929152883011760 -0.02010822494574050 -0.00105403367560407 -0.08169864869721315 -0.24827462340876982
 0.00514100705076665 -0.01832910308684914  0.00446543658056503 -0.01346756168573012  0.00803842373876057 -0.07449706026218295 -0.24885209524795980
-0.02852331050522115 -0.00597553938557135 -0.00070349832958442 -0.00596206619927768  0.02000952087311249 -0.06693769339689504 -0.24940834584548394
 0.00541018911740916  0.00596504114133377 -0.00719330428871865  0.00197631290699684  0.03504910533754834 -0.05894973920488512 -0.24994053700716673
 0.01442122851352881  0.00428586005390957 -0.00454359369877717  0.00659242266979152  0.02789038710401625 -0.05404469308242703 -0.25064754218594280
 0.00780434324064095  0.00512656817469755 -0.00265065877364688  0.01155914126969470  0.02237549124841178 -0.04891896451960401 -0.25134180860625960
-0.02661694385136830 -0.00311174797313228 -0.00121765152478394  0.01618108549323754  0.01923865930815618 -0.04341207579266754 -0.25201719591045746
 0.01306824527725127 -0.01507416715001569  0.00086589792062187  0.02008354093197164  0.01563052146415076 -0.03792338521469202 -0.25269650146631960
-0.00391198668532747  0.00342579617801073 -0.00127486823019630  0.02903949530251432  0.01415416086743366 -0.03248347700305649 -0.25335898078571060
-0.00033765865806595  0.02518772380375150 -0.00285547771745653  0.03691606612908759  0.01258875745699816 -0.02697799523960052 -0.25402226915907944
 0.00633392317999222  0.00712156674460581 -0.00561300222499848  0.04893335057210592  0.01029966530212255 -0.02188453862628734 -0.25469181689929010
-0.00056717274707989 -0.01097261022693337 -0.00992897922701033  0.06533224890341638  0.00754709142007849 -0.01718152168189090 -0.25536590119235647
-0.00519019880922460 -0.00549640128828447 -0.00309705719480293  0.05002179811311610  0.00826771472215190 -0.00963502287958011 -0.25600766258707720
-0.00896874412705671 -0.00165342131111252  0.00261190762584346  0.03701196405648249  0.00875471350656014 -0.00224159538065021 -0.25665166172981890
 0.02146282084192612 -0.00038575512790177  0.00909963370886524  0.02771452592961235  0.00871661674884389  0.00446572441080996 -0.25730139631889093
-0.01986068377245453  0.00151938474175462  0.01762249212054703  0.01803173492894637  0.00861762823847687  0.01088546488120642 -0.25795286260231120
 0.02208777699723796  0.00030312017132541  0.01193520301397217  0.00929094996193632  0.00917210842852180  0.01957426808641351 -0.25859126455514780
-0.00507574135881812 -0.00220903995674707  0.00725053304667526  0.00088939034415321  0.00953014183499927  0.02771107826928757 -0.25923320971772174
-0.01010034550667776  0.00580588069388957  0.00443345640091848 -0.01038604492114549  0.01080850623904471  0.03816234731931042 -0.25986065522888500
 0.01455529336233717  0.01827119013834059  0.00165277832378269 -0.02425756946904152  0.01301554474055716  0.05100848349305622 -0.26047358456268194
-0.02334140535851919 -0.00511380726496791 -0.00221758468205997 -0.01916653326208169  0.00848447350179948  0.04650225026067203 -0.26119324611602870
 0.00111036532367908 -0.03348636918831538 -0.00563551219464277 -0.01551258398280223  0.00446075436036950  0.04328561385680455 -0.26190511261278280
 0.01926941760158131 -0.00733818598391875 -0.01143185837761514 -0.01366614843515153  0.00110254970497461  0.04189649212174858 -0.26260612240986670
-0.00844377828340754  0.02045954618577268 -0.01956884138708364 -0.01120443459065168 -0.00245109309304420  0.04010907459187505 -0.26331032633225690
 0.00199799597997589  0.00517171859095563 -0.01069869068297866 -0.01211172094361477 -0.00497572839884962  0.04020564118000715 -0.26399906231462844
 0.00134553731137861 -0.00923716338349169 -0.00344765903516790 -0.01258552706723942 -0.00761372994795004  0.04018224826423966 -0.26468955795714410
-0.00622796814515678 -0.00459506643760883  0.00437428510392100 -0.01388911939939498 -0.01012646276747661  0.03979760483058316 -0.26537911683946260
-0.00139292409777971 -0.00223783785788215  0.01474840374874951 -0.01630560325409125 -0.01241887241317749  0.03926362928006116 -0.26606663820361887
 0.00899388650411332  0.00464375731223999  0.00748779065615024 -0.01076026861352259 -0.01627131496117207  0.03990217796066449 -0.26676988025524373
 0.00457802500346340  0.01376071580749968  0.00171938439303636 -0.00573302375079506 -0.02006112616781647  0.04043499962131171 -0.26747281846616067
-0.01669606004676545  0.00495358735863642 -0.00337355240457588 -0.00203649180517949 -0.02333141852226689  0.04097075611386576 -0.26816965868041030
 0.00947462453643056 -0.00347307366729509 -0.00991440013043204  0.00138835911675748 -0.02631119150524301  0.04165302220380789 -0.26886317174280133
-0.00456197661302118 -0.00373932955489080 -0.00689630577350831  0.00726508987126356 -0.03150421778770522  0.04133738919412105 -0.26958348459694803
 0.00660455479601784 -0.00537802818905161 -0.00448119744289010  0.01245249458582674 -0.03617596364541677  0.04123001062767619 -0.27029768887205850
-0.00848514034365687 -0.00246127315076374 -0.00381428468293452  0.02076626452737077 -0.04298923359779845  0.04033865541704985 -0.27103779849182640
 0.00050215957181562  0.00006673125715415 -0.00364656850203098  0.03225202065081670 -0.05202923225363254  0.03861433507683462 -0.27180524234410286
 0.00626676596620881  0.00228854076504139  0.00070449018990472  0.02072880394768846 -0.04493935730579650  0.04291719863965028 -0.27237625597567160
-0.01039209813471063  0.00424698997756040  0.00452909526449726  0.01082085440377129 -0.03904711785498220  0.04675912958730200 -0.27296269012598634
 0.01586360376906218  0.00804640343684881  0.00936256245890644  0.00396462118333698 -0.03486110962321939  0.05005276982667380 -0.27356569377618850
-0.01141061121533740  0.01675018575121722  0.01564204770801996 -0.00284634370840946 -0.03031186740445534  0.05356355028379021 -0.27416083210336860
 0.00998084155200099 -0.00824440280557565  0.01162384634005711 -0.01134846739581963 -0.02746281280083047  0.05584457134022414 -0.27480343013837870
 0.00944581924999982 -0.03622847599154085  0.00820303856967067 -0.01908079475256704 -0.02451389864299797  0.05829451307339859 -0.27543903027756770
-0.02925423934147620 -0.02409843199409580  0.00698791426521691 -0.03095628669291819 -0.02118228526399448  0.06036922328160277 -0.27609372731612590
 0.01484986848319370 -0.02139183689415849  0.00656932189863873 -0.04688115108346594 -0.01766285067270519  0.06196928977517805 -0.27677146964414150
-0.00532292379027143  0.02045231070537350 -0.00027037049613501 -0.03336982416018539 -0.01558815527792602  0.06697409286988305 -0.27728499430276930
-0.00142240194975273  0.07425538935979250 -0.00608767810488194 -0.02194948168608919 -0.01339721760171738  0.07181630446208215 -0.27780680564984140
 0.00916445011465450  0.02426529814320424 -0.01487130670745202 -0.01426855878121708 -0.01111564372966197  0.07569825665124968 -0.27837335078649006
-0.01228945821985554 -0.02459401960020886 -0.02716117429193614 -0.00649219134229710 -0.00892715531482650  0.07910684920740504 -0.27896167816840950
 0.02104985879439770 -0.01928398360740514 -0.01424013124430394  0.00232939738763938 -0.00614666933988358  0.08617355063044391 -0.27938288155380064
 0.02827271952760307 -0.01859123454382318 -0.00373559625382082  0.01041928176405156 -0.00347905899295049  0.09236635499738255 -0.27984429504168107
-0.07872809760431120 -0.01781922961035178  0.00771617594719195  0.02279729149790467 -0.00041848606008719  0.10218216673411842 -0.28013967892131920
 0.01807400711428517 -0.02373831810053016  0.02303194429702276  0.03929649007895118  0.00306837409301634  0.11575685456775281 -0.28026327141311480
 0.03173412392690253  0.01377099255880263  0.01160900515803955  0.02580783178046823  0.00347416352384674  0.10210006554228793 -0.28163309392631510
-0.01774066363224685  0.06081923782661371  0.00264740331922569  0.01458502896905166  0.00409385424299040  0.09046060559198141 -0.28291132977199650
 0.01626798247425488  0.01830148673497536 -0.00661226812424338  0.00626908985525641  0.00513846020487973  0.08173226865126812 -0.28405287247361190
 0.02033960643895811 -0.02426920556018538 -0.01927810329469399 -0.00297066824537431  0.00620449676631640  0.07241852325631547 -0.28521846472270650
-0.05973845727746055 -0.01342711109725159 -0.00860790800383259 -0.00723871945022043  0.00693219731851450  0.06577191834415483 -0.28628372253563916
 0.00770347729190163 -0.00770048388941815 -0.00011236543579772 -0.01210477367829411  0.00778866837658958  0.05900164559343575 -0.28734998573382764
 0.03683540681453882  0.00159234311043934  0.00881239300737331 -0.01602695985758262  0.00798669563384289  0.05140853921887571 -0.28847325516449207
-0.01158657192588448  0.01532097295571508  0.02085373097558917 -0.01856850912081827  0.00753437445797635  0.04331246122052299 -0.28964026634997210
-0.00496219475713755 -0.00356171092528385  0.01147057796872063 -0.03095182749210197  0.01180686441295736  0.03900117634359757 -0.29048571240712930
 0.00141922983324140 -0.02465494139464811  0.00478821493105561 -0.04304280493625541  0.01582654131273898  0.03442323418210077 -0.29135133904677230
-0.00032443237916220 -0.01153056060065197 -0.00697088571913069 -0.05117478904022345  0.01869567614702367  0.02935386826196325 -0.29227678584186080
 0.00615021341337544 -0.00143627687447725 -0.02587602801328713 -0.05685367415569925  0.02107687161791199  0.02429268255959942 -0.29321874009939500
-0.01253115718051253  0.00883259955580217  0.00618221854676509 -0.08102734683818760  0.02730173506113107  0.01939969264875321 -0.29402266331208850
 0.00060924072067200  0.02580854138354169  0.03139240279699367 -0.10091040260530620  0.03259222199180922  0.01441458673801701 -0.29486249667658815
 0.01044586076125202 -0.00254067763002021  0.07155165211355110 -0.13824769228371794  0.04179854675576578  0.00994768156139585 -0.29554724623721510
-0.00029011731579379 -0.03981915448554772  0.13142085512347287 -0.19378067521014825  0.05505702618333110  0.00598456413206390 -0.29607330272655120
-0.00771606009887840  0.00950037905269164  0.05031531872152212 -0.11752643619943896  0.03895488736644071 -0.00164155205377082 -0.29775145847941690
 0.00250739255209605  0.05368208301877578 -0.01363485236126064 -0.05027009548108768  0.02507263724794273 -0.00897314315097724 -0.29934007090180090
 0.00549096452317366  0.08076939050519821 -0.10706825673147800 -0.00218530940382525  0.01403070006097207 -0.01606763596681548 -0.30083491721540380
 0.04132478023516681  0.15659582797006283 -0.24418955112822900  0.04408410028355166  0.00208444561407063 -0.02338274597260524 -0.30238189169869270
-0.08564183859462385 -0.08285694143233101 -0.07048895257292992  0.11139996139942218 -0.00499168865531706 -0.02930345884874394 -0.30361800349200380
 0.07181223906858644 -0.35322041692285533  0.06697781019623736  0.17176782027620774 -0.01264464623907970 -0.03547191771883756 -0.30490357848690070
-0.08164796043553870 -0.22811775906381132  0.25883023072731540  0.26593494151744046 -0.01943245573114783 -0.04083570825487531 -0.30605014422931104
-0.08414722819917324 -0.19040006820898667  0.53722364295297820  0.39385984591163780 -0.02492199177712420 -0.04530647858542685 -0.30703584087155670
 0.25409881552307184  0.19618615360128067  0.20171617110098872  0.27669602252796016 -0.03965658126625797 -0.05622389161996647 -0.30918191529451056
-0.08105323527016248  0.68898311245401460 -0.07347838651372544  0.17689397635180598 -0.05398592208587384 -0.06681696373463583 -0.31127092448974225
-0.05521167112491652  0.25844117858794574 -0.38125538139037185  0.10855458618032880 -0.06546425206332199 -0.07570230427866831 -0.31304520120171410
 0.02812067797165509 -0.14072971811248114 -0.79145679516102440  0.03973364759233226 -0.07543138668146615 -0.08379407873501030 -0.31467025101526686
-0.02672679356837641 -0.19968307506953030 -0.48943526771805984 -0.04006805532856546 -0.09697842887690120 -0.09806289913158875 -0.31745549068051115
 0.01245151137035603 -0.34193616557493023 -0.24417696952694640 -0.11324865434443884 -0.11578153320271267 -0.11084659323542649 -0.31996265165071510
 0.00142825493774854 -0.11760146350549510 -0.04934184401460227 -0.22428264684710436 -0.14590082678691418 -0.12981204645634903 -0.32362654397109610
 0.00312348796449590  0.11240354261258549  0.18301724567144750 -0.37186798758157790 -0.18777522946765987 -0.15518497135611897 -0.32849024679106150
-0.00880738752373053  0.07802375739535297  0.18249991129600857 -0.25356069270052740 -0.14449359332379944 -0.13413588981464472 -0.32466323604249560
-0.03082976340992882  0.07194034228906533  0.19332000770835578 -0.15434995422569578 -0.10757287754026118 -0.11652774829484108 -0.32148117459704095
 0.06979243028209403  0.02959387204889005  0.26949560879581075 -0.08752198411620789 -0.07940602629387977 -0.10386897183664600 -0.31922207082168640
-0.04060415877242615 -0.01546657518017370  0.37935969974584170 -0.01854829049720657 -0.04908891889577385 -0.09019994434210252 -0.31677098086791566
 0.02083148792032807 -0.01574809687057738  0.23056004470679758  0.05049711440838757 -0.02944589173824412 -0.08116718444153065 -0.31521048311344590
-0.00955709241434047 -0.02591521895111760  0.10534590036077894  0.11502890730909970 -0.00889796608075689 -0.07190352208143398 -0.31360191808802634
-0.00514393528838958  0.00352917380202692 -0.02205154795067588  0.20997906926368273  0.01217800999377139 -0.06131686408105318 -0.31176576100499800
-0.00547295305995906  0.04236959784351037 -0.18292701053421714  0.33343192346510886  0.03267818831704598 -0.04995632506850856 -0.30980624461197750
 0.01675914577696662 -0.00592029637949293 -0.11499628111571573  0.24916936571783610  0.05689930121270055 -0.04444276098901283 -0.30878727774052740
 0.02416125652184080 -0.06036463190266027 -0.06511967388449474  0.18015412488397287  0.08114433483324301 -0.03850579620063159 -0.30769734332014770
-0.06492235232237485 -0.02226504694421366 -0.03277109973778200  0.13423860805466253  0.10298787692286299 -0.03188637340127409 -0.30651830277254083
 0.01975037850004069  0.01155538913059804  0.01023540466401214  0.08462136007267544  0.12305990849883121 -0.02535071501230174 -0.30537236769888226
 0.01515865862274626  0.01978565051608612 -0.01149205767537131  0.04973185205826734  0.15627849724831283 -0.01855598940787551 -0.30404333665109360
-0.02181240430820024  0.03314888843305574 -0.02643892345528768  0.01505616311196607  0.18647873920284752 -0.01173593864151467 -0.30274230735581380
 0.03607075998940020  0.02605225807920540 -0.04728811078183150 -0.03022489209194911  0.22887097960953612 -0.00524978642713358 -0.30136801633698607
-0.01193100624456844  0.02862646969076135 -0.08070800776338631 -0.08397443241094683  0.28399208142164656  0.00094678968891933 -0.29990775570516964
-0.01027862597493475 -0.02031267334766366 -0.02576532366747085 -0.07535911329168918  0.24692847624890418  0.00926346674251257 -0.29906799868462797
-0.01074550352875950 -0.08362120464671803  0.02054674631584482 -0.07158035192740424  0.21668499737777366  0.01739824795457152 -0.29818370650661010
 0.02735841829590411 -0.02001598677446640  0.07118780617383616 -0.07299895545051929  0.19635659124943763  0.02547225771659279 -0.29722491495709713
-0.02294604070180234  0.04680853258008449  0.13620542702012300 -0.07168879510248832  0.17410279582198648  0.03374452767644929 -0.29627226227773185
 0.02756492602408573  0.01686816871047722  0.10135738103533838 -0.08659490870694916  0.16046683124140804  0.04069485916258499 -0.29531305653276435
 0.03788047326466547 -0.01596056840349558  0.07213778261229596 -0.09889683784558816  0.14650583325221714  0.04790407741150318 -0.29434449446893130
-0.10754126423040389  0.02620670175460301  0.06548120358032584 -0.11868357179663053  0.12938325322511443  0.05418857450190795 -0.29344455987852890
 0.00965464527333183  0.08789958673384860  0.06773316094405263 -0.14709241379661536  0.11016495074255848  0.05947503564175083 -0.29260860646961795
 0.07587086104611111 -0.02350190445199850 -0.00085689722014322 -0.11337826701698914  0.10660535969115582  0.07197689089777437 -0.29130773699408335
-0.01767304895522168 -0.15367320646587293 -0.05956430199751472 -0.08412309816223093  0.10199881966768273  0.08411157877978409 -0.29003239771992670
-0.02403975509909962 -0.05632528814000270 -0.14168800445132200 -0.06246986809024663  0.09498176581970136  0.09436282978083857 -0.28886730494329970
 0.00935798719019108  0.03217119388925816 -0.25394435754952360 -0.04037434359170319  0.08764884511928567  0.10375190714719201 -0.28774786618615520
-0.00420627807806193  0.04588013118981354 -0.15048451665140980 -0.01784878212399768  0.08356292332162348  0.11986492835254171 -0.28626909252234800
-0.01333382184136262  0.07767940459502527 -0.06569831624389723  0.00348624768620411  0.07852117116318484  0.13435866875779093 -0.28487810315884380
 0.03140941419717407  0.02994111121027234  0.01385207059856557  0.03258370803697298  0.07791484658682965  0.15559962262698207 -0.28311953441398546
-0.02313407282458423 -0.01672483106987113  0.11422525851918021  0.06898849430766424  0.08179300250947659  0.18383247359655003 -0.28098113474914310
 0.01922736884298376 -0.02132692592664416  0.07517792806681634  0.05215389771497424  0.05313695373048410  0.16140859913122094 -0.28159656671211660
-0.01010291319969921 -0.03337931628294669  0.04666664840145571  0.03925582362419896  0.02696341720959856  0.14274040943803654 -0.28200877545950010
-0.00036706551075149 -0.01964348919306760  0.03201752792851258  0.03208943953854252  0.00378522710961903  0.12946745769635526 -0.28212283223027973
-0.01366242444490124 -0.01090655599984435  0.01391707903565818  0.02380206124159355 -0.02053580901022863  0.11508695591694236 -0.28229310106856640
 0.02672816591675328  0.01476180634574484  0.01312676488027812  0.02054777507045381 -0.03843344263764908  0.10580328848361825 -0.28221719288658010
-0.00893967900012909  0.04934380516191662  0.01102526012403273  0.01706972367889898 -0.05720148921938085  0.09625925530735861 -0.28214876091564200
-0.00641846761859986  0.01396961089667849  0.00703662890406072  0.01197118111669400 -0.07408946002632386  0.08530491011258659 -0.28218428201586726
-0.00339498951620711 -0.02241448478528031  0.00305070770150555  0.00585631571429219 -0.08857370382054250  0.07354112785038415 -0.28229287479772480
 0.01150043734457819 -0.01032842091846719 -0.00016074184480374  0.00737041692504897 -0.12029114942154970  0.06790411331869099 -0.28185959872788280
 0.00494350341946998 -0.00026224028609211 -0.00295753542835420  0.00834705892867115 -0.15120108844526100  0.06181820499717407 -0.28146186886548663
-0.02213215420992938 -0.00459353504699250 -0.00895054954879543  0.00833210700025432 -0.17714666044585680  0.05505237420740517 -0.28115356624015540
-0.01196698902492324 -0.01107123281906499 -0.01773887853652228  0.00833186513586764 -0.20060058353002850  0.04840698727860643 -0.28086221390248320
 0.04471789579448952  0.00448012022603472 -0.00604076910445062  0.00868292865079052 -0.24326792812791250  0.04125194708457849 -0.28041626921130690
-0.00559905363384089  0.02030086041013904  0.00328912937906062  0.00884427926870535 -0.28135626687323234  0.03412408860888585 -0.28001312264767130
-0.02702496287899351  0.02132388261317301  0.01608894380676322  0.01006956070889521 -0.33839879244163207  0.02713188879693721 -0.27941856683770650
 0.01169308054279428  0.03312217470706445  0.03451450815723364  0.01232950201680516 -0.41511358946473960  0.02021881996283348 -0.27862952517641670
-0.00284651488689765 -0.01820411054670943  0.01306692713326454  0.00706664127315740 -0.34931299664901827  0.01270852010171329 -0.27925253474062470
 0.00214228889252574 -0.08292834403773960 -0.00458584182852756  0.00231907081843284 -0.29412847590786406  0.00526355298348688 -0.27976533154363364
-0.00042057324248351 -0.02034446895587615 -0.02353943330907799 -0.00134605696358201 -0.25379024115894090 -0.00225845450241317 -0.28016588109547390
-0.00377368099993630  0.04563403179882660 -0.04839844800081334 -0.00491973202194385 -0.21003248184361634 -0.00992317882851132 -0.28063265955186040
 0.00809712280964302  0.01366698870439317 -0.03245399061223335 -0.00960675848250023 -0.18283106840461470 -0.01658158399310186 -0.28070083233718196
-0.00625098722898259 -0.01378194798736240 -0.01940030867215417 -0.01391888683862529 -0.15440535463156432 -0.02345509641262544 -0.28083352789153630
 0.00355713343931389 -0.01474657002457261 -0.01164399394658981 -0.02006885223474142 -0.12395174672069273 -0.02950301744378046 -0.28078001671891120
-0.02250835057377734 -0.02581258606771135 -0.00395200492000246 -0.02805164591609972 -0.09325949835904782 -0.03467735242766847 -0.28051261682797790
 0.04389175441863262  0.01614255738126415  0.00656211320574386 -0.02272668303833490 -0.06504485691340742 -0.04617401793791698 -0.28178794024694170
-0.00014995766366258  0.06502076158622827  0.01597836275371144 -0.01840731710230782 -0.03633659864710619 -0.05734628900346532 -0.28298703814760650
-0.04024687760906766  0.03552036101308016  0.03106987528478594 -0.01537834986324427 -0.00944647746573390 -0.06688612120723667 -0.28376944104243960
 0.00790416965508356  0.01751684249017148  0.05178979534967317 -0.01194106818061911  0.01545321202489131 -0.07568711465909782 -0.28435486920862650
 0.01760733681533842 -0.03076550240900792  0.03163649499344955 -0.01069896783544973  0.05472275427427493 -0.09025852205089493 -0.28647160351385660
 0.00361841435762211 -0.09254593289283014  0.01495047689336873 -0.00919609270377337  0.09078679382150550 -0.10343851388409150 -0.28822107933280780
-0.02147948515757667 -0.04490318272776413 -0.00028945769497543 -0.00808825666852932  0.13954241033296044 -0.12242080813123923 -0.29149817241114260
-0.00238353928262750 -0.00811944641805880 -0.01908535400764402 -0.00757005704171622  0.20161358646846100 -0.14741469414454575 -0.29635949238024560
 0.02339149256557280  0.03560889009739254 -0.01432649037841286 -0.00285218772622571  0.16727583176532657 -0.12885373960370802 -0.28974478193473013
-0.00538797901726165  0.09789824006752348 -0.01133244458738255  0.00164213963622987  0.14009175443339061 -0.11352177918727056 -0.28398190120983260
-0.01013924091061800  0.03054350444353777 -0.01078974711792345  0.00510346776437638  0.12313768331629363 -0.10282965682771708 -0.27943589460481777
-0.01299777062498357 -0.03779499676915054 -0.00977598655003753  0.00811796615609798  0.10404351967743708 -0.09118613579802885 -0.27463443323448560
 0.03364744431716658 -0.02176828027583869 -0.01087668295263283  0.01464222808718643  0.09488618216905396 -0.08391843115699008 -0.27102229648034487
-0.01685985693965227 -0.01287409514592359 -0.01130743493092567  0.02030902496230463  0.08518543183382471 -0.07642826357204541 -0.26734364131595780
 0.00385154026296611 -0.00483657705688386 -0.01488496373908964  0.02957947434452398  0.07297674511813834 -0.06772003858179838 -0.26337599635458720
-0.01248559753021754  0.00518618011220353 -0.02153507179852997  0.04257523915323961  0.05941686199231532 -0.05831007838618497 -0.25925737945745220
 0.02113862539421758  0.00096812730054304 -0.00582931748503438  0.02857677318792579  0.05614825870563413 -0.05420973081904119 -0.25629356363724304
 0.00735902611663207 -0.00113398320704103  0.00704608534158577  0.01644929733058144  0.05210441197110775 -0.04972119251708320 -0.25324043365385770
-0.03301771351007528 -0.00876070926718344  0.02533840256377299  0.00806279142735385  0.04706114352324074 -0.04463781684240969 -0.25009189675719445
 0.02970191546260025 -0.02276356245540432  0.05125347723884459 -0.00012244642679367  0.04235324714733966 -0.03965361792914907 -0.24699679978526850
-0.03466830762802882  0.00920950457168595  0.02281554758089622 -0.01137306340353701  0.03581901988515787 -0.03426567888071043 -0.24358282102450957
-0.00554759244506556  0.04546387680886039 -0.00000838694457208 -0.02147819375963786  0.02955056968951491 -0.02889273137875222 -0.24022436105254120
 0.04420447074372152  0.02571017096984228 -0.02754687754063724 -0.03740706730530237  0.02262822155535222 -0.02367154376131415 -0.23669116755762903
-0.02561706860984883  0.01474447956777362 -0.06583916429220112 -0.05909641615769282  0.01491659705233057 -0.01855473372862299 -0.23296345654304293
 0.01734785550251771 -0.02180616958641619 -0.02877118238796076 -0.03894008056572287  0.01287997114771085 -0.01266111620177199 -0.23064101754707572
 0.01277585639940493 -0.06996045878502431  0.00095918491852320 -0.02174951995813504  0.01044142564021244 -0.00684399650989970 -0.22821420985684623
-0.04809494220832599 -0.02453772351433417  0.03422131021141742 -0.00992022904104291  0.00727217359031273 -0.00098335441318085 -0.22563991154745710
-0.01500179654680947  0.01934469342139136  0.07958758435056804  0.00200197121042384  0.00410965962384338  0.00501061975618500 -0.22309843178971897
 0.07654658769285497  0.01767404469551163  0.04092213203796832  0.01572164787624459  0.00123199525166292  0.01007729784880092 -0.22040142574110700
 0.01328098866515241  0.02449838245644162  0.01003142028612286  0.02832977502736600 -0.00180988169299717  0.01533818024401548 -0.21771451188614240
-0.09430209545366383  0.00047803179145525 -0.02206697049819707  0.04732154620636132 -0.00392123257070648  0.01986531762576170 -0.21505718599250578
 0.01848492889104263 -0.02975897529407419 -0.06513004816859917  0.07247224518298759 -0.00513326860496725  0.02361273477237095 -0.21241221855379622
 0.04094401306560205  0.00071294621826872 -0.03296341176430627  0.05281775143208606 -0.01288726928470551  0.03300180521173413 -0.20967143821303746
-0.02110319009792908  0.03768953687257944 -0.00754062132971287  0.03640027343701888 -0.02029171215167693  0.04210193065818529 -0.20693876746044274
 0.01418782036182474 -0.00447412699699202  0.01749676538167372  0.02531274401313807 -0.02610013226900956  0.04974179728504574 -0.20421039826453619
 0.00533474930457191 -0.05702059162086397  0.05096878851788567  0.01374760609947230 -0.03123059334966712  0.05671903130996980 -0.20147450938253347
-0.02741303351292700  0.00590492219430418  0.02715431589473262  0.00301791777637446 -0.04170049082220971  0.06886970464804110 -0.19878883489858465
-0.00293179714956932  0.07580087316140142  0.00832740101159283 -0.00713965089124332 -0.05087339100889620  0.07977326566523135 -0.19609321142510800
 0.03449834252719936  0.03137708818575650 -0.00920545756103222 -0.02167808076373481 -0.06547938840627165  0.09587637947057753 -0.19343440992266203
 0.03902881307854250 -0.00527994541487571 -0.03221940215178264 -0.04023701384760026 -0.08570838179116230  0.11736680414508686 -0.19081531000482690
-0.10934305286232583 -0.02694762585081752 -0.01847088987339823 -0.02945877678813114 -0.06519532865992599  0.09982539264266724 -0.18791014450733684
 0.03816141965420002 -0.05970362506711116 -0.00790825306159527 -0.02084191314811452 -0.04772278347550592  0.08517627733316724 -0.18502554269223380
 0.01834103601068574 -0.02563416391455048  0.00171093472270992 -0.01543408043770715 -0.03445685456887530  0.07469425333509170 -0.18217660527818924
-0.00171079381201995  0.00453285287902592  0.01472254325727246 -0.00945286950129924 -0.02017863977799496  0.06336791106299400 -0.17932645207593698
-0.00426726315144062  0.02019083359165390  0.00504052340407620 -0.00591991205487872 -0.01088668333003662  0.05590237685569617 -0.17646933271641696
 0.00674765359827101  0.04302147565548882 -0.00238112327640517 -0.00233260033629908 -0.00118799402427535  0.04825093939837478 -0.17361882211830168
-0.01084859600396251  0.02560739633122030 -0.01117047943020440  0.00241119600039193  0.00886525673019497  0.03945468948755068 -0.17072890810073520
 0.00256710704709671  0.01594009939423496 -0.02383417919500554  0.00799493785000463  0.01875065401110790  0.02997361410144252 -0.16780165284817844
 0.00469072275996831 -0.02074723318724379 -0.00948454423188260  0.00734972843086240  0.02963733155041456  0.02565579435872002 -0.16514720563023005
-0.00330723237017993 -0.06828776531172434  0.00236171773091014  0.00720993597126644  0.04057698192261604  0.02096901253277792 -0.16247802964881010
 0.00498183095800279 -0.02664537397619752  0.01462681892174524  0.00743948438193443  0.05055846949169833  0.01564645674269322 -0.15974409475993770
 0.01461161589297581  0.01120494548062450  0.03044998669655520  0.00725769262322385  0.05977400050599069  0.01036711927725339 -0.15698377244035086
-0.03620339761846754  0.02113077909658759  0.02184985192231051  0.00970806338237206  0.07463731825313902  0.00508324119515676 -0.15443325800403120
-0.00157946031820032  0.03903517244310674  0.01476620338508775  0.01167021218119642  0.08821266406673493 -0.00027359443372072 -0.15183161473786985
 0.03594912019709151  0.01900285744529293  0.01227934763920426  0.01528947995861543  0.10696677722370480 -0.00513370810352142 -0.14944530575911280
-0.00872850124318548  0.00253817186852128  0.01114218691793516  0.02072256224818706  0.13113380333406993 -0.00952674720118046 -0.14728189014188380
-0.01098535636290763 -0.01431384891189931 -0.00125616240319797  0.01305272858734750  0.11610196776637370 -0.01732251692489292 -0.14350422436527507
 0.01158191843482679 -0.03837767972654268 -0.01179571672604727  0.00618702602478205  0.10395997881285865 -0.02483993180954069 -0.13985201274005954
-0.01596446200160177 -0.01352515796609286 -0.02798473381046515  0.00182980040397217  0.09610209392114627 -0.03216898646334623 -0.13633400378336924
 0.01045684138514857  0.01066619595113441 -0.05074674039566286 -0.00179470684214472  0.08748779666945079 -0.03973245412206149 -0.13274639404786584
-0.00685861324803049  0.00984138839350518 -0.02620894738365133 -0.01154421889709745  0.08208306510855170 -0.04578564378944149 -0.12957252522100993
-0.00150087912660034  0.01303456378841584 -0.00642834235132638 -0.01970443809892021  0.07664138339062614 -0.05211723463342414 -0.12633457585463445
 0.00945343836855015  0.00362960638313713  0.01661539649281819 -0.03478096479445201  0.06945493030593311 -0.05750947325559665 -0.12327246888133660
-0.01447831000296293 -0.00683111804008482  0.04826892771625231 -0.05694721401582549  0.06095686101328831 -0.06187105611464500 -0.12041666563366266
 0.02131326851351435 -0.00223598983929472  0.01982167548746531 -0.02771613510967978  0.06216145445456270 -0.07367735719585658 -0.11607643523208507
-0.01361907427626938  0.00280074238381626 -0.00449769154370627 -0.00184845175815085  0.06276278158061880 -0.08510743157562298 -0.11180936457319457
 0.00976855493031656 -0.00389888365157670 -0.02016944765863119  0.01557479669829125  0.06156557524144364 -0.09457665482077982 -0.10794639231556503
 0.01405576082476338 -0.01425310188892084 -0.03500197389933349  0.03140758732489232  0.05988976154855622 -0.10313996274290775 -0.10427645225294356
-0.03955335398565089  0.00645912271173679 -0.05944837342047903  0.06189558519445575  0.06228935917971441 -0.11876004296216205 -0.09910975314226023
 0.01275192374816890  0.02344148397811566 -0.07749478737737431  0.08824496463111710  0.06363123327103111 -0.13268242250308865 -0.09430193294611378
 0.00796450829191986  0.04673284683461821 -0.13241880596865460  0.13341073240641857  0.06957884194913733 -0.15367420443405644 -0.08800346412870766
-0.01136459089180164  0.10155335283552616 -0.22236122080978020  0.19766503229730750  0.08025011718315261 -0.18199284323317896 -0.08015941208910372
 0.02404716134583446 -0.05755708464678656 -0.05720099136503265  0.12345552533327404  0.05667871125179303 -0.15722831119341693 -0.08351349053164259
 0.04168624731890178 -0.21762600590292752  0.08256673904699740  0.05898233634376070  0.03568910966816400 -0.13639802044196742 -0.08603669110696800
-0.10874376289388801 -0.24270608844483560  0.23826937731958417  0.01276789194077430  0.01805951255314862 -0.12123024507343910 -0.08737210153309952
 0.03254781196508584 -0.39516889969183240  0.43902259709338165 -0.03327097884716092 -0.00058215444259928 -0.10490995249682301 -0.08895695689031605
 0.01747864789840020  0.22184093975374700  0.32584174146480915 -0.08877968245172163 -0.01385570763303575 -0.09387149830652317 -0.08938208660978617
-0.13341695652108240  0.96433277593839370  0.23053070864718156 -0.13981300069684488 -0.02773395759872586 -0.08257336535636473 -0.08987214422016875
 0.28129236771130800  0.40727121294347096  0.20494459018935257 -0.21515878561135100 -0.04086872197563460 -0.06974524209265370 -0.09064529379647111
 0.04876205517534674 -0.06627197323527349  0.20621750245370085 -0.31422123363807775 -0.05276944882832052 -0.05601414939812618 -0.09156737399819292
-0.35104686246261360 -0.32775449939388934 -0.00686984717707902 -0.24086052400488990 -0.07342520670439372 -0.04909963246625056 -0.09135288750733680
 0.16230714230634657 -0.74093884993341020 -0.18985920407471052 -0.18019109062921304 -0.09371588846512227 -0.04169413024115695 -0.09122634062744793
-0.03741151804632085 -0.24874277756849660 -0.44501505030144760 -0.13847910911379200 -0.11118169396235737 -0.03347535473177693 -0.09119513341014723
 0.02201396731018829  0.24649345845455126 -0.79257876688004150 -0.09351349750783305 -0.12710075799293666 -0.02533785786792157 -0.09111316435688627
 0.01370278942693539  0.17325910262050415 -0.47844767264564050 -0.06210654794595395 -0.15482999862080588 -0.01701775782705711 -0.09133361301192652
-0.00667046156060067  0.16530210368199794 -0.22051594308660194 -0.03061132038394698 -0.17977077846086587 -0.00864119015500553 -0.09150218612676275
 0.00518293686453853  0.04792615405851033  0.01417740441740188  0.00871926645613834 -0.21618518044700563 -0.00076138354844964 -0.09183279441016610
-0.01455786380412953 -0.08859876159964461  0.30618741347672795  0.05403435357273920 -0.26452499945284624  0.00666827823646638 -0.09234487410182249
 0.02526407561295550 -0.02149953690749923  0.21842348219436460  0.05513497373033871 -0.22647810362253384  0.01738463284052926 -0.09154792982818677
-0.00239599291982217  0.04309812618458679  0.15733928276942130  0.05982770355204872 -0.19484740927655425  0.02782620235963533 -0.09084824006615641
-0.01773445662666048  0.00423497242021098  0.14756728510056227  0.06711675136741857 -0.17234116422829687  0.03812544381865587 -0.09028719982320824
 0.01318680897803541 -0.03674461174161479  0.14097397208345902  0.07146995276580104 -0.14787700374525570  0.04868765066132109 -0.08969719376361478
-0.01480212126350438 -0.00527656834320138  0.08977690785306819  0.09462911133008850 -0.13261001671955230  0.05752443639297723 -0.08924208466119046
-0.01264382865653287  0.02813698760208612  0.04398573249281513  0.11430762844553768 -0.11678773974617329  0.06668992456187223 -0.08877997787119170
 0.04134854570180188  0.00690676066485642 -0.01164568065843677  0.14577639731787356 -0.09899702767135840  0.07471052230409095 -0.08828173685246607
-0.00735525531259238 -0.01370758828107347 -0.08253511703269110  0.19016020421055888 -0.08028554840322628  0.08148654914456098 -0.08776337826591090
-0.01864586684974803 -0.00687658285312832 -0.04525611384677836  0.14125080375801460 -0.06869508099802592  0.09725691425829056 -0.08739820347405897
 0.03066342140081326 -0.00047201512773641 -0.01673764878555349  0.09896647206822552 -0.05651389294745651  0.11257097275937884 -0.08702241835857837
-0.05020930217321953 -0.00673101778597730  0.00511507035474341  0.06856427437572196 -0.04400509092434465  0.12552796577867803 -0.08662599007906999
 0.00745933547421941 -0.01669245974320544  0.03366810011754398  0.03791331983853737 -0.03206557997527879  0.13740160294816298 -0.08622938463280123
 0.03264059940462512  0.00507171458716989  0.01960305173928261  0.00357474243430123 -0.01640220305595761  0.15771982964004272 -0.08584383687958770
 0.00330433366850193  0.03184625621706330  0.00881962290789376 -0.02831792974211961 -0.00147692575190619  0.17600532522002190 -0.08545375814355527
-0.03285181214784585  0.00645851106221193  0.00194057893286771 -0.07441928042711040  0.01611037602109522  0.20275843051646820 -0.08508786001839466
 0.00584700396367608 -0.02065389843824111 -0.00619189494931419 -0.13419135874435230  0.03655819102617534  0.23828680902189806 -0.08474591997229378
 0.01501397266409126 -0.00551978334763456 -0.00751159479672345 -0.09449331781464879  0.03632102218051354  0.21023806047857851 -0.08423041459141878
-0.01103405536856847  0.01111592879641267 -0.00899289836303850 -0.06203420375720037  0.03758828700016222  0.18690330818833553 -0.08372839588180901
 0.01437146754278130 -0.00665822486754067 -0.01354995838071059 -0.04105795310907424  0.04125346278510216  0.17033731818100242 -0.08324114593507540
 0.02480799417119336 -0.03036185675140774 -0.02020589361991676 -0.01870065373994714  0.04464626027892415  0.15237895669783952 -0.08274680451968737
-0.06596207088533357  0.00525998193643813 -0.01119642396573918 -0.00054016478326974  0.04880766987998085  0.14083450452128768 -0.08229447449016988
 0.01317474857461059  0.04795274429455407 -0.00373540195512412  0.01687186376334012  0.05315737119659255  0.12895950326279434 -0.08183581082855838
 0.02966982083341779  0.00859182080962739  0.00464302187140223  0.04194552457429820  0.05575964407845757  0.11532937269082472 -0.08139417377799477
-0.02704761260057874 -0.03428079275710813  0.01574832166596875  0.07377758332053863  0.05680334745497957  0.10069902565334513 -0.08097280438503081
 0.03358294042434500 -0.00556409201708922  0.00787575577939471  0.05617087772367670  0.06924093401392498  0.09364470724524980 -0.08040606328417821
-0.01411233788422753  0.02263730535945419  0.00163119068234836  0.04225584258528854  0.08103753964582096  0.08603293743655388 -0.07984645082693861
-0.00265612099981082  0.01273739651192444 -0.00403784282054489  0.03341712363539782  0.09027008476482400  0.07759638100093075 -0.07932699179379438
 0.00699228967513113  0.00845967206075243 -0.01140970600302096  0.02330370003939077  0.09852154317805548  0.06932358886561789 -0.07882707131049378
-0.01582603682408397 -0.01159400548544879 -0.00744235883182079  0.01956541553151089  0.11461586326308754  0.06031247010603316 -0.07817634105418561
-0.00529036486921707 -0.03843955331954656 -0.00425543642055745  0.01522667526126117  0.12877905054939193  0.05135935630025788 -0.07756174114316201
 0.02454390717358580 -0.00995349843168377 -0.00270622321507006  0.01097344993223079  0.15109910192514775  0.04247668453534819 -0.07679748457256673
-0.01432400161491800  0.01995252442768566 -0.00134580627796432  0.00743372083025791  0.18184456442871194  0.03358998301155093 -0.07587810188442802
 0.00775091347732045  0.00744857623560086  0.00203400056276021 -0.00102568068132504  0.15153655578355166  0.02470254855194778 -0.07608301672452875
-0.01032289865909407 -0.00457426926596692  0.00526344031447406 -0.00924957509563672  0.12578987105805858  0.01583911710339269 -0.07620080862372049
 0.01275774088368800  0.00466370872906026  0.00830154252675704 -0.01608333802076684  0.10631373896266137  0.00681574999768444 -0.07622428268843678
-0.00122982904884270  0.01701443625104617  0.01143397539258161 -0.02222187423238408  0.08529008408927372 -0.00235524981388002 -0.07629570016542735
-0.00898885879453632 -0.00332587411438857  0.01401617677375597 -0.03372186018369808  0.07196197540952172 -0.01044891915096187 -0.07608381984421242
 0.01114815585500252 -0.02771237068508700  0.01571695504171920 -0.04392743879146227  0.05797426429105323 -0.01878419157556664 -0.07591557041624562
-0.01643037361704857 -0.00592140991400031  0.02360922536662446 -0.05953262078316344  0.04365460259041340 -0.02615927103222745 -0.07562937797541580
-0.00027545218227637  0.01706440227048882  0.03710266110742013 -0.08072829268148080  0.02979556524183413 -0.03252768226727827 -0.07520445752011465
 0.01617943144379771  0.00494058763929038  0.00965641430087211 -0.06141755963406544  0.01292246025785911 -0.04618521383797174 -0.07577840903281943
-0.00378221312750932 -0.00774613751966227 -0.01320517917138576 -0.04504414120838213 -0.00395202994563718 -0.05946727174952088 -0.07630333733799266
-0.00609832472705437  0.00356021168958224 -0.04201467145797634 -0.03342193670189154 -0.01900174613725811 -0.07087713757199290 -0.07655570747624038
-0.00407777684491219  0.01808351629608971 -0.08116001016913650 -0.02131348187747267 -0.03272841234431762 -0.08144436408082723 -0.07667781014302531
 0.01353969735627508 -0.00255747841765623 -0.04724193662062429 -0.01036302106407323 -0.05628751255330094 -0.09859742130246893 -0.07781067712906456
 0.00302548886468574 -0.02728397136466045 -0.01966752457553183  0.00014762639282061 -0.07758620233863756 -0.11416144421726537 -0.07870132191693724
-0.01732384020167282 -0.00414078996400316  0.00623096894819950  0.01434537437509168 -0.10802318129103168 -0.13635443855323995 -0.08059842864471920
 0.01335801507085998  0.02152995823257105  0.03923019619989884  0.03187949329984172 -0.14799879381925898 -0.16541487836799512 -0.08353930577691646
-0.01199786488885710  0.00226199384812104  0.02462878821911468  0.02504656912821414 -0.11889278266700888 -0.14471943728510284 -0.07891860173989651
 0.01295534356770133 -0.01675620112914253  0.01358761673889558  0.02003734474619458 -0.09493330813189780 -0.12771401968561025 -0.07485910147065403
-0.01564273498954145 -0.01129773776013202  0.00752299081250897  0.01750351331619979 -0.07816672189908468 -0.11600032619977325 -0.07160130665269096
-0.00540448464068254 -0.01108089123884912  0.00050018235495483  0.01431879849082495 -0.05974018468839797 -0.10319181163617651 -0.06817494029168317
 0.02507054554807268  0.01008481267895093 -0.00222258973145447  0.01444257952379421 -0.04935695404670971 -0.09544030609407833 -0.06553339867803770
-0.02139751655748336  0.03757152489339725 -0.00471838387915845  0.01423632057748391 -0.03837782800051788 -0.08742171738163745 -0.06284770458560576
 0.02359785041812426  0.00999181911638752 -0.01137778718741158  0.01419920429090167 -0.02642103892919852 -0.07806284499267560 -0.05997247974913814
 0.00182033921105687 -0.01866855502600904 -0.02144664673642246  0.01464982505627678 -0.01435556302516450 -0.06795609602845776 -0.05699856006373302
-0.02740081281897498 -0.00742623453463360 -0.00643710971203586  0.01169175437761675 -0.00344092062424961 -0.06352565125951683 -0.05477923584444848
 0.00437019839364961  0.00269294904599331  0.00593428546273180  0.00896785524109560  0.00770779451869085 -0.05867197255174682 -0.05250129879447032
 0.01395356388995089 -0.00268095557086044  0.02082220235808930  0.00673397468053146  0.01797979942552458 -0.05323762327671523 -0.05016214082600744
-0.00249183391550696 -0.00950623642562144  0.04101797635435411  0.00454711270741288  0.02729716335252783 -0.04796055445466669 -0.04785877470697909
-0.00726157858141636  0.00189552173850825  0.02393814770267909  0.00181912591504815  0.04350871053413013 -0.04187802793591665 -0.04534000911958615
-0.01532100059885547  0.01486855344100317  0.01006451374143085 -0.00072069245660991  0.05818139341227752 -0.03589583634041591 -0.04285904099340422
 0.03782414031666779  0.00670663167372441 -0.00274576414558643 -0.00419276039630575  0.07894964266774038 -0.02973954724958116 -0.04025744564926238
-0.00645644178542815  0.00041219934281756 -0.01897724496032612 -0.00859048234948547  0.10611236787168327 -0.02334264571749102 -0.03752183728655778
-0.01966783126087168 -0.00591857663701039 -0.01238776634170017 -0.00626514904979351  0.08697674850251141 -0.01866562883234187 -0.03575384902263265
 0.01454377204712599 -0.01442929979940741 -0.00754957832371412 -0.00442752333892092  0.07128622097733041 -0.01387384545755499 -0.03391377928493406
-0.01512707103958041 -0.00802999867736569 -0.00480570321187538 -0.00337675184665454  0.06044403753264333 -0.00881354877429937 -0.03197299185915613
 0.00441292602156203 -0.00394073098029453 -0.00134122494816136 -0.00224298797699414  0.04851522346962358 -0.00371181827890714 -0.03005539310919652
 0.00515140850608537  0.00653999507323093 -0.00184996151371075 -0.00131764355105526  0.04178851463609936  0.00098634353448003 -0.02802566442122669
-0.00906538545854257  0.02030721650473108 -0.00201516703140158 -0.00046049972261590  0.03470523852581042  0.00580552973869764 -0.02600394388513655
 0.01501552479527517  0.00809607978712128 -0.00204555166462251  0.00098645183987992  0.02679525508733353  0.01005921639458655 -0.02399796646739339
-0.00800943582881624 -0.00296443719996458 -0.00237197697762121  0.00296497514443166  0.01863313014015525  0.01374324552454922 -0.02199547794196448
 0.00333984169485588 -0.00616964425932063 -0.00073382820944467  0.00106023468771107  0.01254079238312317  0.02156128140744266 -0.01996265602744485
 0.00649611393036264 -0.01234316981098352  0.00061112288892899 -0.00058286025704360  0.00622555135043336  0.02916274137322001 -0.01793347561928785
-0.01805446390343310 -0.00301592391961482  0.00272205961223713 -0.00163885762552100  0.00015865524239115  0.03572674852112516 -0.01589819603225911
 0.00178449180126901  0.00742906422125712  0.00575974339746441 -0.00262253079535899 -0.00542376398317602  0.04183552106431133 -0.01385351785799909
 0.01093241459628887  0.00097921235364576  0.00213916777504496 -0.00436490558937688 -0.01441537682745308  0.05151412476786950 -0.01187561409877168
-0.01733232309237879 -0.00383513685418199 -0.00073702769659575 -0.00587422739030477 -0.02266716432368011  0.06032892273201688 -0.00988301707060572
 0.02660347822935431 -0.00965648476583693 -0.00456885461758069 -0.00848475401496939 -0.03378999100803505  0.07275369934806672 -0.00794805459910768
-0.01425007316893826 -0.02170213637220400 -0.01006595168300297 -0.01220285525315981 -0.04794001358980926  0.08891676115336936 -0.00607369892037984
 0.00398462472405438  0.00854295459798254 -0.00379163609139375 -0.00788302856556936 -0.04017793394119369  0.07799466561444489 -0.00376059787597265
-0.00707606969677224  0.04601612660659481  0.00141891266905810 -0.00410230679347630 -0.03404097567655912  0.06908175633656094 -0.00147941287144586
 0.00950845439340938  0.01002899220768676  0.00663676343196495 -0.00155483405836344 -0.03023453681579516  0.06304623535870371  0.00075097102440330
 0.00422993406099573 -0.02848527744423753  0.01325217523908643  0.00082414950189657 -0.02594689634926825  0.05641176692555552  0.00298721509602688
-0.01904783792325395 -0.00681343915557779  0.01034665830872791  0.00490918522355829 -0.02387989487853986  0.05255181213520384  0.00520659988220603
-0.00612967195305985  0.01366736447120778  0.00790104819300624  0.00847778616409652 -0.02169821886942271  0.04854160789635156  0.00742215874801946
 0.02867004644370714  0.00724361984760233  0.00812203657393706  0.01447069040470023 -0.01891050035706931  0.04382112555338907  0.00967405245053910
-0.01361793743051884  0.00432914753242164  0.00967219249676824  0.02290481166902464 -0.01577822048422159  0.03871378681017443  0.01195829084034561
 0.00349404787805198 -0.00684136235335949  0.00096940572137418  0.01362347500857530 -0.01525633914876862  0.03654973466765420  0.01400612484561709
-0.00098182600463797 -0.02225904385736177 -0.00634995169330894  0.00554154621154141 -0.01454485340472438  0.03416284953949451  0.01606735990135953
-0.00388093045674584 -0.00399391941061418 -0.01673817033008411  0.00010306235893526 -0.01353270904143546  0.03149753652723493  0.01818121559755504
-0.00535983638367723  0.01652251245503106 -0.03118213108305049 -0.00503225438540231 -0.01256194328849686  0.02893479769699559  0.02031492863029690
 0.01470503434857422  0.00198079040598263 -0.01662721979860035 -0.01342967466871317 -0.01144665236110871  0.02580109849896996  0.02228969782868907
 0.00123288701980020 -0.01235707386066904 -0.00485199396186523 -0.02079945574133805 -0.01032697933104610  0.02275399159007520  0.02430370937938912
-0.01531795474294827 -0.00759957944424204  0.00800853559477314 -0.03307580664347014 -0.00932768671195792  0.01947874698624726  0.02615184295526959
 0.00749556880337799 -0.00622325692120004  0.02530255841570956 -0.05027385345910240 -0.00842801466648420  0.01593436802079477  0.02782873726211208
-0.00196476727648218  0.00679261581800190  0.01191633615787421 -0.03174819704268844 -0.00679682157106362  0.01432722041581671  0.03074670555836970
 0.00816976536008501  0.02393174129373204  0.00092366038664467 -0.01576356410622938 -0.00522765085730832  0.01257988390567272  0.03356826276394454
-0.01439970283397294  0.00631227208115615 -0.00754928183804622 -0.00429595642255884 -0.00368435629663144  0.01060307552237573  0.03628706664548730
-0.00033083897853521 -0.01201634543133273 -0.01731400663780526  0.00730448229936100 -0.00207706522924084  0.00864692205049779  0.03905998368194656
 0.01522616398075018 -0.00494964197057932 -0.01941373206811530  0.02004773975341281 -0.00089369717497706  0.00665404109973557  0.04151124079382988
 0.00776243239062580  0.00194522776202662 -0.02083616526451559  0.03192696729113963  0.00037199504280895  0.00463502570579511  0.04401264751552900
-0.02851750904677106 -0.00463321787607330 -0.03140313063428646  0.04892631292866062  0.00134578679913321  0.00281506894392164  0.04637582568982500
 0.01075805315097218 -0.01404315955672613 -0.04949101571362901  0.07083531272391472  0.00200388005364843  0.00117766429634279  0.04857739976255678
 0.00186081506556118  0.00300038559885171 -0.01224320641875648  0.05701435727604584  0.00494400790249272 -0.00179193398607861  0.05194271708103045
-0.00823566740758567  0.02479628712315479  0.01886274569696619  0.04588236900963717  0.00776849962990103 -0.00468882625535492  0.05525075334846684
 0.01830640327590866 -0.00066551147544770  0.05765371632830898  0.03828533897503317  0.00999395680333987 -0.00727096162282339  0.05824220586764516
 0.00301154940615699 -0.03152771935041165  0.11010676741085237  0.02965278885180482  0.01194362379404804 -0.00972460351406669  0.06108274280940872
-0.02227548842040310  0.00143602232714501  0.06606669457930920  0.02646781921853158  0.01604245891057723 -0.01319584757479461  0.06509450085049144
 0.01104595116731125  0.03862257079602652  0.03017003724449447  0.02267578320457756  0.01962411354742035 -0.01641878025224470  0.06882548931201733
-0.00154582074262420  0.01023418118335800 -0.00195222506174874  0.01959296400552274  0.02535962820865828 -0.02068484509476222  0.07372325884564074
 0.02516427879244572 -0.01817183426732010 -0.04202124640154641  0.01771847015730549  0.03332734638489746 -0.02602981392520581  0.07983098454976464
-0.04813569662082114 -0.00820692084823436 -0.02967486540540457  0.00727921145289584  0.02512256977279694 -0.02355725510915257  0.07717309257143987
 0.02217426303730500 -0.00057083326680901 -0.02058843592960772 -0.00281657015880022  0.01811923519119068 -0.02166538196328319  0.07516583096355015
-0.00063210725434330  0.00068605051508112 -0.02139835021337299 -0.01005734423913140  0.01282218101557044 -0.02059882385866533  0.07408744895905472
 0.01155579382452749  0.00367041497190809 -0.02523158719164070 -0.01570082202202305  0.00715669715477460 -0.01935464012449709  0.07281320226056750
-0.01748863848169621 -0.00169396537174951 -0.00403833946602456 -0.03351168370293504  0.00322660641121173 -0.01894597882505902  0.07245202022481831
 0.02543067714081873 -0.00765298904450540  0.01284691807671783 -0.04845764692903615 -0.00081065870801386 -0.01848620268113960  0.07203892847622329
-0.03542649574261170 -0.00453373873901208  0.04345888083046599 -0.07517023677846472 -0.00520330381815829 -0.01785214461837378  0.07140900559197560
 0.01895703200032103 -0.00344626035462424  0.08974200518528198 -0.11411814714759891 -0.00975473483724772 -0.01713868081634245  0.07066770214416884
-0.00521041836771705  0.00584583038316621  0.02313395331896075 -0.06443571208568936 -0.01307165704269515 -0.01704125969206068  0.07077925409466884
 0.00464326410117401  0.01401261704010763 -0.03549011493850909 -0.02064870589571794 -0.01649437080652623 -0.01689161455555292  0.07082400738282134
-0.00006065733302669  0.02454815205377004 -0.07950947996240065  0.00920933586254672 -0.01995134541097614 -0.01672118878336269  0.07080334928259155
 0.01931094195183932  0.04810366134279922 -0.12360934500639052  0.03690020501512278 -0.02328879393329521 -0.01660702295779297  0.07082667576971749
-0.03887008251073660 -0.01645964100290396 -0.17377386241422083  0.08565751079603029 -0.02742397354211410 -0.01611963742546784  0.07058090029064770
 0.01402870874346283 -0.10697409942689315 -0.20985885705903293  0.12820725621654225 -0.03139694634100917 -0.01570759109159535  0.07038364452966471
 0.00802802495722990  0.02796264590829067 -0.33607796893353420  0.19954805012523108 -0.03596804096917730 -0.01501958882352976  0.07002699256845480
 0.01258310192207467  0.20721672779030703 -0.54572137270546480  0.29995941557311470 -0.04117820030840626 -0.01403629258950864  0.06949476485229120
-0.02578299458234167 -0.04203164868175796 -0.14658645134419093  0.18944323523907370 -0.04176594801765235 -0.01518889224788048  0.07023092353970647
 0.05967528330215921 -0.30511433224300530  0.18616346497016145  0.09379264092182926 -0.04266509599151155 -0.01617870981690016  0.07087217517985263
-0.11772025637892272 -0.22268760789531608  0.59543860556385230  0.02572968729586815 -0.04426498392168522 -0.01697046430823468  0.07138435694098790
-0.14186597157852418 -0.23837414395074757  1.14746731075153870 -0.04227547760411211 -0.04595475270119113 -0.01783569273173962  0.07192970725514729
 0.39999167460127390  0.19823144441066726  0.69292416972483400 -0.12317659067201094 -0.04671537593385543 -0.01829047641786954  0.07230804759688297
-0.14071312425253363  0.74307123040256660  0.32219754740238590 -0.19760423428790874 -0.04776260152605753 -0.01879942786450277  0.07270140002638391
-0.05694451044394334  0.28991594145372600 -0.00158326770206996 -0.30769773781433540 -0.04745385906459875 -0.01919804828333703  0.07309758476683467
 0.08003666900119577 -0.11894463529298449 -0.40126188726191050 -0.45248398790314076 -0.04578247050928995 -0.01945219550448073  0.07347973564966503
-0.14249116529269030 -0.23052316785555670 -0.30523807763904753 -0.34500741822069790 -0.05400105951728199 -0.02074106728087147  0.07395712183827519
 0.05803346711291927 -0.43470156484858790 -0.24243260404542920 -0.25606514291136745 -0.06169417952408292 -0.02198115895389894  0.07443237063265482
 0.01080923959669182 -0.18325257032164477 -0.25750668955322020 -0.19508056765964830 -0.06695411023153128 -0.02292516734637581  0.07486492253196392
-0.00806027974985241  0.04857932873825814 -0.28704270571668533 -0.12953700705802530 -0.07116955368070663 -0.02372135750676235  0.07526960458011964
 0.01631168415275112  0.13137062742033012 -0.18326711859409840 -0.08235934988198458 -0.08359938867799640 -0.02565815202630423  0.07588371907027033
-0.02414732422347066  0.27852057071214520 -0.09263323351657084 -0.03537626780199901 -0.09403516050913700 -0.02732282460758339  0.07644919734444024
 0.03791799014977062  0.07861524404013163  0.00630338666127947  0.02434071717362427 -0.11282060117907410 -0.03011470388665861  0.07721299611345220
 0.01788151413621902 -0.13422962493106660  0.12997430295350762  0.09415085421985780 -0.14024815037891392 -0.03407629066761304  0.07818351902545276
-0.07643710063290168 -0.04958085000891791  0.08171046918408553  0.08959100942154008 -0.10505854261344763 -0.02956391516643579  0.07765716137748908
-0.01761959523039832  0.01977772099974707  0.04627507545319044  0.09092576834349153 -0.07455654348535153 -0.02567886427665169  0.07724069405416652
 0.10715151281920152  0.01854366051265126  0.02882595441987964  0.09761311573937202 -0.05042273650103727 -0.02270257206701409  0.07699125842989650
 0.01214925779962722  0.03359940336479408  0.00763669420688281  0.10027187295988711 -0.02464441439983056 -0.01954673247326793  0.07671617619400017
-0.11467058388391721 -0.02269172464246156  0.00382164775374753  0.12792476804282057 -0.00717749484555915 -0.01720169650196868  0.07654042818794947
 0.05414390040315355 -0.09121092605647543 -0.00056759572379665  0.15121250092012203  0.01105849997564118 -0.01482243959747836  0.07636845416788103
-0.01436076355339087 -0.03432718782402069 -0.01184059097945220  0.18840961604196474  0.02927087000188139 -0.01217026472622041  0.07610966962049603
 0.01615975369428546  0.01814238609305390 -0.02776029375077974  0.24112178146453137  0.04662796310762031 -0.00934385479236184  0.07577967576469890
-0.01094073207561769  0.02589855868996351 -0.00900248227382858  0.18186466106362786  0.06984834391126486 -0.00782346540128142  0.07597353313474056
 0.01430723535725110  0.04669048241651399  0.00629427614516680  0.13058733956544583  0.09292514943676125 -0.00621343056715295  0.07613640738009986
-0.01689026888226970  0.00536416364431572  0.02384342587869381  0.09338473454832145  0.11343342360085637 -0.00441789631500507  0.07619188915401715
 0.01430258668410269 -0.04425823948956623  0.04763133321536148  0.05571808307538036  0.13227806955973326 -0.00261040531571593  0.07621208876522641
-0.01373109025388761 -0.00056469584627266  0.02793041367893374  0.01483755591432625  0.16361142399251144 -0.00096872602309938  0.07652161924685214
-0.00193114926358418  0.04638701515974950  0.01192659080577264 -0.02336887755846203  0.19204441695137280  0.00072904837844605  0.07675844615047298
 0.01929317391937471  0.01675674985265030 -0.00253748492749173 -0.07761662827991630  0.23228318944757514  0.00215104217435336  0.07730644210722967
 0.00912249607861444 -0.00969476405618162 -0.02070490024082343 -0.14720165259149567  0.28482466068426404  0.00329766318049417  0.07817501150449607
-0.03606637689073683 -0.01295684027998276 -0.01434199281070081 -0.10514835447412356  0.24825895007358903  0.00644350519310667  0.07672063410797839
 0.00062353461745390 -0.02467982483058412 -0.00996016455723661 -0.07132976774798329  0.21828662507792282  0.00943106783790592  0.07544703818738355
 0.03264800126638651  0.00730418106553845 -0.00717975370900718 -0.04966485487811920  0.19789186275957085  0.01227274538549421  0.07436428663101899
 0.01642330989959929  0.05090977204247497 -0.00303886923270489 -0.02577712211422246  0.17562966741605010  0.01521963793169301  0.07317909780524953
-0.06055793086358403 -0.00943115315438437 -0.00745381191765788 -0.01151277086717519  0.16174355165778230  0.01751639272693895  0.07260525418465780
 0.02067021084148218 -0.07797182648107204 -0.01055057140773839  0.00300630507744183  0.14753238907898078  0.01992349831496243  0.07193555052604633
 0.01139323260856184 -0.03032015561856732 -0.01724235188968381  0.02179161789163985  0.13030989024310308  0.02199024492248499  0.07153303851362847
 0.01127259299592654  0.01144010019681471 -0.02818454888887505  0.04361311930074358  0.11110799230807539  0.02367320186520137  0.07144209612727176
-0.02996187919089440  0.02441691347786364 -0.00854847454395984  0.04288228157027100  0.10670618245782941  0.02812445031175764  0.06910806854324789
 0.00089824381595517  0.04921323957451421  0.00766478954797512  0.04413840611887036  0.10130875465953809  0.03243733383422724  0.06688474117450859
 0.02302332652271373  0.01058408887491446  0.02829613100248058  0.04568696893518531  0.09367369749961890  0.03601077685797538  0.06527053840528811
-0.02506192386440975 -0.03256590998004087  0.05660389461873338  0.04478947050428493  0.08577776079575827  0.03923776553349512  0.06394648420454868
 0.03229333612978313 -0.00700660067396082  0.03064335859664874  0.06040932501889898  0.08067596877419991  0.04515874583381577  0.06037139398076691
-0.01797987198216442  0.02075855703510121  0.00965009033363179  0.07270640826402970  0.07473256949406148  0.05043260721897540  0.05733613099199956
 0.00532679736450388 -0.00623884030139597 -0.01179635776685193  0.09715313084898120  0.07273521097794583  0.05839853714674961  0.05205797546341454
-0.01011713549711506 -0.04003938848498727 -0.04006959148981998  0.13462552327190505  0.07471849539184262  0.06915520520273655  0.04445425674759630
 0.01222942430405166  0.00303416347698155 -0.02164651649130021  0.07789848648536826  0.04781922095858153  0.05969318201403521  0.05369943118240452
-0.01669223413637107  0.05765129446188985 -0.00737214142162249  0.02767754386969356  0.02313029482755967  0.05172912513544311  0.06169450762336556
 0.02572784383034590 -0.00969149006503292  0.00641051650835649 -0.00933105322316547  0.00105737574279870  0.04592540950270666  0.06790173867591212
 0.02333946884573488 -0.09519027428658067  0.02519123903987323 -0.04548492958162267 -0.02206972355609870  0.03968598251061647  0.07448358272724190
-0.07403000646250799  0.01191208258436854  0.01014313839819693 -0.09344349100563254 -0.03920522489262858  0.03543447867996212  0.07932531112335967
 0.00702823929576342  0.13174234749477715 -0.00161862806060022 -0.13714483797422256 -0.05717796430276996  0.03108938585419495  0.08426363459774934
 0.05130973010168091  0.05339208618415713 -0.01487930410566332 -0.20223279759176777 -0.07322609818674483  0.02614047886232685  0.08963206706058977
-0.00885367126742075 -0.01258732776707151 -0.03344037625555681 -0.28852776803528657 -0.08687208321596941  0.02082553251901207  0.09522890340399845
-0.02099911782504604 -0.04517720720744338 -0.01521539377257545 -0.22079124311809803 -0.11775898872154003  0.01826700604160762  0.09908414061151345
 0.02393261539187648 -0.09715972451319994 -0.00086407566568216 -0.16434866807185608 -0.14782844170193574  0.01551317068222000  0.10307330972559513
-0.03478844498310994 -0.03661624770797715  0.01714019545219368 -0.12513552579145526 -0.17299555015438192  0.01240879970878743  0.10721391335965373
 0.00041498276355477  0.02207032940765013  0.04280045181382558 -0.08329105549833667 -0.19572946747014830  0.00931719294823079  0.11128164602547604
 0.03408597361181601  0.02483978902955374  0.01466684239931929 -0.05155286250091490 -0.23725081921564795  0.00629837773451669  0.11577679822931020
 0.00908127386570136  0.04143710209189112 -0.00750601751050828 -0.02019232982692965 -0.27428909629358090  0.00322366390040577  0.12020056791441137
-0.04367838416167053 -0.00241702039170938 -0.03700919839914075  0.02000004506121017 -0.32989916734353040  0.00048173346520597  0.12484022070275708
 0.04571809424968577 -0.05920912510649506 -0.07955619503992063  0.06745358186565524 -0.40478096839948680 -0.00194003832732062  0.12972399659390840
-0.05784740294102841  0.00738490884739113 -0.02995971307650741  0.06154051679268470 -0.34004765607275600 -0.00669108869012414  0.13284771194322240
 0.00989336963132711  0.08005076180699973  0.01112764827088555  0.05979804784365284 -0.28571721096102940 -0.01125390844111658  0.13610152617219837
 0.03676863827732174  0.03931179798700416  0.05348144566336657  0.06229433163767333 -0.24591199925314470 -0.01567230009893723  0.13954629922087130
 0.00359656867537855  0.01100339141344090  0.10787793544826368  0.06226934329062563 -0.20273948571784970 -0.02023684758491686  0.14295634290865006
-0.03497151775784092 -0.03402466321990772  0.07968923898098416  0.07748422741434893 -0.17591317258063371 -0.02387192816668136  0.14651713844987618
 0.02079770004465011 -0.09522737568363862  0.05625745985238988  0.09017556373418449 -0.14785919617344917 -0.02767415991102379  0.15007541377294742
-0.01284996467199573 -0.03674000140474293  0.05083701883215946  0.11041649685843105 -0.11793056488727707 -0.03092648424475813  0.15355783893313796
 0.01135735428749261  0.01762918852517966  0.05224030921682068  0.13924534595343746 -0.08788568107988858 -0.03357088705659837  0.15698468127682240
-0.00756230505048464  0.02772193726281330 -0.00093873956360181  0.10615886210706960 -0.05941702420631534 -0.04060472920948490  0.16082433150029790
 0.01861746700318069  0.04968993850398163 -0.04634337347583574  0.07750554675193343 -0.03050889021125908 -0.04741740978648017  0.16463910241474025
-0.02786437448598861  0.01706699952628921 -0.11086195635325095  0.05650004521234693 -0.00359874570531867 -0.05306949012250546  0.16837295712666536
 0.03361062005618801 -0.01598325035322842 -0.19959012042581883  0.03511719915808077  0.02126466040003442 -0.05818326863935162  0.17208271088857321
-0.04325615531738524 -0.01254811183946672 -0.11486915092123282  0.01284097009432499  0.06096292149904947 -0.06748814355366226  0.17599419625771000
 0.01467131928784772 -0.01101107129401357 -0.04564569931787134 -0.00814832048849001  0.09733793268106071 -0.07578516366550168  0.17985454165177820
 0.01093653712103491 -0.01773020359380493  0.02258025658468351 -0.03726290395711444  0.14691013613335663 -0.08827786018055786  0.18393555088529756
-0.00480230064607952 -0.03415146608836526  0.11049217668786300 -0.07407152292008537  0.21031813786937328 -0.10511929993529032  0.18824378841053507
 0.00038313909056211  0.01819861915439343  0.06480860777209080 -0.05484339473865782  0.17354656919417077 -0.09045412817861195  0.19090615457146930
-0.03386116755284163  0.07502902512832646  0.02968578355162918 -0.03972446499109150  0.14421281149534180 -0.07812337010867157  0.19369093703859410
 0.07309228452197049  0.06083101258429320  0.00469882538064109 -0.03086599405208732  0.12548014740258780 -0.06915806443515639  0.19664933887944680
 0.02048992700550262  0.07345886874171316 -0.02655718326760997 -0.02103659865500158  0.10449698168906728 -0.05951287416126498  0.19957048508627961
-0.11177858597593766 -0.05077655520568589 -0.01964989680219114 -0.01497897786202039  0.09403421540996912 -0.05297214093468340  0.20266766005907433
 0.00344321304871516 -0.21039896465427974 -0.01481444639732747 -0.00902631635396310  0.08296317432238087 -0.04628406007254330  0.20575413162482287
 0.08684156799102584 -0.05113071341133606 -0.01929355951916448 -0.00001910737701065  0.06945912664604710 -0.03866106762400686  0.20880446001754793
-0.04526463573882029  0.11665845396278904 -0.02805514827565369  0.01147361963224997  0.05473252524695899 -0.03047396849642144  0.21183889592555782
 0.02491532166066719  0.03859489853921688 -0.00349781341923343  0.00468607954055621  0.04938561022417212 -0.02653662285176777  0.21499825052324953
 0.01512700246174034 -0.03803045760193443  0.01728807764336386 -0.00080767325529935  0.04330100534014317 -0.02229726371220902  0.21814698725970713
-0.06447652082737713  0.01763339694905075  0.04324134908339070 -0.00395402847772467  0.03651419890500000 -0.01752343931429923  0.22129277721803808
-0.02886834786861981  0.08848307744539606  0.07799251316630153 -0.00714589475843351  0.03022668732113407 -0.01277483457502382  0.22445147437503166
 0.12090220989810434 -0.01661756054488989  0.05052068720656870 -0.01109371116283787  0.02086220055923819 -0.00809803369605385  0.22752486730611770
 0.01811250288339364 -0.13100974550956834  0.02778284511942284 -0.01457905625610557  0.01205856670833898 -0.00334416055144175  0.23061583396747168
-0.14597800133875130 -0.08018069271489713  0.01091386404399367 -0.02071725245325123  0.00138745859104440  0.00093297760905813  0.23364247913707806
 0.00704546463789983 -0.06006840060906048 -0.00794270487790306 -0.02941855760390588 -0.01133442434172361  0.00475456606743985  0.23660079467417572
 0.10859997217966022  0.06808680759826474 -0.01591365399860546 -0.01947582707189537 -0.00924316297948398  0.01189177105707038  0.24005476639846074
-0.03711112608233638  0.23701665353209770 -0.02420466666343582 -0.01078674313069878 -0.00823549434734714  0.01876006190088272  0.24347099954315213
-0.00898852147178165  0.06682657242506185 -0.03699597251708077 -0.00493573151602595 -0.00890408312165707  0.02542931212392813  0.24684222306152928
 0.02666017050197383 -0.10801628837504730 -0.05275741154781259  0.00054687284396995 -0.00934085475097718  0.03231265483337718  0.25023173555017740
-0.05461857969229341 -0.05003290953083436 -0.04628628483921200  0.00982429861420254 -0.01059689250908028  0.03782884144213891  0.25351841841821720
 0.01417382707629222 -0.00135317956243073 -0.03997295507674671  0.01794310517839409 -0.01192924998388097  0.04359285800566626  0.25681951159246270
 0.02171861527657687 -0.02443968185097041 -0.04591191343084222  0.03152150933037275 -0.01223799366598212  0.04853476664821497  0.26008857139276265
 0.00821179399277235 -0.05828612510470853 -0.06037097664410390  0.05059339289144470 -0.01167098333688173  0.05257009231068113  0.26331770339826620
-0.03505877110649096  0.01824360216298474 -0.01126389382948743  0.02979849071446046 -0.01752347465391750  0.06315217832708570  0.26683479830676770
-0.01575782086993548  0.10738612735609124  0.02973653725639153  0.01172114012820543 -0.02300948864826979  0.07340408080848780  0.27033832446404530
 0.06145606660163026  0.04753214542178875  0.08657735018350651 -0.00052981154593969 -0.02708674148674040  0.08192717355751958  0.27376073688554740
-0.03509050403315611 -0.00058992699720973  0.16556154215661353 -0.01221049804184438 -0.03064475101257294  0.08964945489417647  0.27714361101849144
 0.02084141397304255 -0.03911124745477763  0.08662071145403999 -0.03041434453243339 -0.03837710866176764  0.10360770551328538  0.28083385473026190
 0.00926951328985850 -0.09665271459085954  0.02279571474879322 -0.04648743484595310 -0.04507701183790107  0.11606615139802029  0.28445080602632966
-0.04204767110184354 -0.03073348423706445 -0.04678104344993661 -0.07288366338996350 -0.05614956252726881  0.13476881287418582  0.28837265339529250
 0.01919292377787441  0.03611162170503150 -0.14033929628652064 -0.10960083138624396 -0.07173592131629156  0.15994336313289456  0.29261119731512575
-0.00518770092132501  0.02239884097720233 -0.06799350975685822 -0.07139027731006786 -0.05461243829485296  0.13822909789997812  0.29455704007683625
-0.01718511429311259  0.01459534485411519 -0.00995442337789356 -0.03835349029221016 -0.03994620192172540  0.11998987899260741  0.29667305082028400
 0.04692863177502742  0.01359721860425863  0.04351940845856763 -0.01582606822193668 -0.02854967655971109  0.10675308999337574  0.29903344875451954
 0.02331923417512251  0.01605935758633811  0.11226013550510952  0.00603402251551220 -0.01624187555789506  0.09249890059858074  0.30134434804338966
-0.09167845195290879 -0.00707827536784337  0.07906163437881208  0.03720062662909546 -0.00865705282119968  0.08290562093466800  0.30388309740618660
 0.01062681077320382 -0.04146370799527867  0.05236285199144060  0.06502082467896987 -0.00058542641883674  0.07308399105897130  0.30641088133702510
 0.05950440920652746  0.01422487773988449  0.04380927065179029  0.10963723157709887  0.00713694227009593  0.06190683416442330  0.30887259143271090
 0.00063622304476075  0.08800695399192389  0.04006883549003957  0.17091576259527960  0.01405887885543185  0.04992780486478812  0.31129573442930170
-0.04848020071877909 -0.01217403445179088 -0.00459320285719329  0.11117674704431810  0.02660410122030466  0.04400084819870810  0.31401194552705210
 0.01360443118658213 -0.13352472524006992 -0.04230435215500705  0.05984724131693357  0.03894166931738059  0.03763860434693383  0.31670731053948903
 0.01456998273619871 -0.01122044719725435 -0.10186901644617138  0.02513626058927975  0.04928474052406866  0.03055006258260348  0.31936752736061560
 0.02303468087469619  0.12904778972722910 -0.18655863072843110 -0.00882420316329427  0.05846718119702683  0.02352975696823742  0.32203154948743334
-0.05728009351324279  0.00661397532133249 -0.09033276530333470 -0.05542676425308471  0.07645441360960448  0.01637597895312847  0.32468735503445545
 0.01854237188161551 -0.12802941157161920 -0.01277975892506354 -0.09715928895782253  0.09237554427606547  0.00916560780854109  0.32734101248542780
 0.01141285812992089 -0.02805581079030372  0.08042944308412969 -0.16389643064081060  0.11676388072183466  0.00242205231378706  0.33001601219740510
-0.01860958866972950  0.07440016320121276  0.20947806188171120 -0.25531789741533190  0.14996124422711050 -0.00389485584571283  0.33271080227648220
 0.03349988299441713  0.02411673153942982  0.08741171412245233 -0.16740588882998136  0.11934977611633688 -0.01332525221017039  0.33526304677206280
 0.00017294920132202 -0.02365843536985501 -0.01390069743454047 -0.09218671358178915  0.09351607568695510 -0.02249660133475856  0.33782750651672055
-0.03052666090023669 -0.00058361888092137 -0.10241489025905276 -0.04005788412088096  0.07416609259491114 -0.03152469895082555  0.34039784367514403
 0.01681046931790812  0.02214348455703216 -0.20879909308487650  0.01236562376020972  0.05313592728950000 -0.04079412387023793  0.34295701748699670
-0.00963268096815181  0.00737233895417266 -0.19924588080721428  0.07324891401849766  0.04060797331093968 -0.04848579951184162  0.34559130440811450
 0.00339512713233951 -0.01857724304300485 -0.18868051029580826  0.12920192886664397  0.02729039376574354 -0.05647612375458322  0.34821148202445550
 0.00322263273346752  0.05104290048864396 -0.25471568604341440  0.21316693186896357  0.01401687409338593 -0.06343247771583482  0.35088191407378666
-0.01095152732455507  0.16230909175524066 -0.37755355248745237  0.32421533562171684  0.00163717864839091 -0.06926287176860316  0.35360743651171445
 0.02899115750090923 -0.06002731701807781 -0.07905342675341082  0.23826127875645037 -0.01687778983214212 -0.08322964025086449  0.35593687632469640
 0.08078835793483888 -0.29701608623099360  0.17246256775306867  0.16659058569652746 -0.03523586447628851 -0.09678391893230157  0.35828673650413034
-0.20524452797096496 -0.23767932209285180  0.48404729170766625  0.11801921266979379 -0.05095042995097012 -0.10820399490721996  0.36074002905525640
-0.05919333781312803 -0.28579781394845090  0.90122492571206960  0.06704196685998996 -0.06496484329020687 -0.11864220759881554  0.36324124172900020
 0.30559741578126900  0.20829453310447470  0.57233861516933740  0.02197311539282001 -0.09175018557185433 -0.13673292716576185  0.36537121614820680
-0.09999518119194896  0.82537392480804570  0.30211011670312200 -0.02107496054455875 -0.11556721135542211 -0.15298177028907340  0.36759078616363160
-0.05158091108214521  0.29319500678126650  0.08966849716913411 -0.08143568564411174 -0.15147265878191490 -0.17690266430396562  0.36943841625839885
 0.05052363639251287 -0.20922116949305994 -0.15807512099209290 -0.15742430367440690 -0.19997354089716166 -0.20877447929640494  0.37090111932907390
-0.07751610090638122 -0.22845959333773153 -0.19149480277018524 -0.11925988707043789 -0.15724576660964462 -0.18304162954122450  0.37515483922972187
 0.04810854946700906 -0.33447137902195280 -0.23247876571273593 -0.08950277910891126 -0.12132342318952519 -0.16157919732259848  0.37920306543803434
-0.02640801826656332 -0.13257247596155780 -0.35285013888558260 -0.07224709624108136 -0.09484014221294432 -0.14625457255257500  0.38294643389311840
 0.01430929698903616  0.06696668997723870 -0.52205911335971090 -0.05276884479852140 -0.06610965674061269 -0.12967285113218255  0.38674445990840290
-0.00354347052974930  0.08815562869665837 -0.32312422441753910 -0.04275156071096545 -0.04840309764336227 -0.11886977951516814  0.39031048360653964
-0.04188239037888448  0.14898200960286825 -0.15631121083616317 -0.03252863645143591 -0.02981961884197166 -0.10777448176905353  0.39388024230614520
 0.09325105228178610  0.04745039666817526  0.00380589265287433 -0.01780600874580726 -0.01030215108113925 -0.09506017128040256  0.39757095841290970
-0.01857158642838722 -0.05905485710457958  0.20232567569303736  0.00019259131431598  0.00898431851322931 -0.08140937932643710  0.40135225975137120
-0.04509660629215076 -0.03151196815170483  0.14253054524957762 -0.00609844821586678  0.02946293592622298 -0.07484169045958458  0.40446539486801136
 0.01975559256143737 -0.01144536444419548  0.10108114324002568 -0.01063709296506980  0.05011068958074470 -0.06775753165143172  0.40762082144479860
-0.00453989453653791 -0.01910419752578102  0.09308734576641817 -0.01228369299752450  0.06890608365687252 -0.05987058905487899  0.41089716052384550
 0.02681734389490009 -0.03458453888203457  0.08574910444846841 -0.01420676356904646  0.08612910758582665 -0.05210736732187377  0.41420436891471090
-0.04739224890800608  0.01609533346397623  0.05895046858233426 -0.01556236683601303  0.11489358222652643 -0.04386815022904512  0.41724865384601460
 0.02318597777223294  0.07345765712689026  0.03425986504271233 -0.01666701144000690  0.14103758813727220 -0.03563482824407564  0.42036205794808734
-0.00211803485445097  0.04704852779601790  0.00678362157400138 -0.01982224163411424  0.17768612239362408 -0.02766017018106361  0.42317450332023910
 0.02146382150729560  0.03846985409973949 -0.02620257003556251 -0.02484738769601469  0.22532209040887832 -0.01988362655015107  0.42567923961448500
-0.03658582561507274 -0.03945961117761347 -0.02053093973565438 -0.01622378935455632  0.19339284829988213 -0.01064447429824646  0.43041725277356180
 0.03185326190071131 -0.14126403028302960 -0.01746812522012299 -0.00846356341869302  0.16735795235633910 -0.00154039570677756  0.43498145217317010
-0.03193486723394418 -0.04106841026889202 -0.02026948063325781 -0.00314104232755073  0.14982877713117115  0.00758578633623473  0.43936477856364530
 0.00996926247570024  0.06097744285627874 -0.02387785764800705  0.00158464169429002  0.13059051881472392  0.01690780356021453  0.44384975988932596
 0.01393253546256091  0.03054931204836082 -0.01934497080506643  0.01147924048806553  0.11913572785715396  0.02488680456610860  0.44772688876988690
 0.02368756939289590  0.00756058638237810 -0.01504680608558132  0.01999790843085724  0.10732423607052231  0.03314107747700434  0.45170100133466860
-0.06187375931217306  0.01097355793256146 -0.01399895742819420  0.03458867309889428  0.09308317284463767  0.04037315377402907  0.45540080106293500
-0.01183878795190171  0.01702633725181439 -0.01485190582873260  0.05538452219619881  0.07734813581318987  0.04651385532964102  0.45878349722317724
 0.07831472758302980 -0.00789883518436565 -0.00127210761730135  0.03118884801618419  0.07284888211281923  0.06054924218858374  0.46445288845434546
-0.03745839356524713 -0.03596997250837498  0.01020867754666907  0.01001010552090088  0.06756555034789950  0.07418107366549953  0.47000962520232980
 0.00905508440595677 -0.02492379175875788  0.02701052578900802 -0.00426015459876789  0.06077294787896611  0.08576430610337529  0.47494676488394150
-0.02273410151505067 -0.02334814082188264  0.05042743763388115 -0.01758055538831360  0.05395827386015987  0.09641548341162272  0.47959020670604274
 0.03359419011137464  0.01821193380097298  0.02640025306615341 -0.04049865631281275  0.04798126506370732  0.11434122051872386  0.48651641427911740
-0.00318235461224484  0.07826822937239562  0.00690869488310515 -0.06051237254650772  0.04165520301941494  0.13051387178955748  0.49289535293064450
-0.02795456317600926 -0.00940643439309078 -0.01428230938622099 -0.09415801507863783  0.03716723813749691  0.15399434656095168  0.50155043623391860
-0.01943456473045544 -0.12119892776692154 -0.04266360721595314 -0.14153067040002560  0.03448937885033231  0.18504688351119214  0.51256622014366890
 0.06045792481957692  0.01540372165470306 -0.02131597485361036 -0.08928889656371888  0.01866016800870610  0.16123899287138987  0.50648171926184230
-0.04228796498642239  0.16534439462834855 -0.00452258636409817 -0.04409031162896366  0.00384833340491357  0.14149833045375820  0.50166637404350700
 0.03577966229680266  0.07999207010881794  0.01266893840159943 -0.01176957658356483 -0.00984546821161914  0.12760134231891396  0.49866564447435180
 0.00364873089284769  0.01920795725534966  0.03605118966308033  0.02066252210388904 -0.02408693846513444  0.11250552023072585  0.49528564391034300
-0.04512544412552216 -0.06798053169033366  0.01708445213297442  0.05817267690456284 -0.03510663410003765  0.10292484477817984  0.49366829408094240
 0.01061304241550030 -0.19018072739688420  0.00213702704088269  0.09285166261986050 -0.04661854245529089  0.09306320136134992  0.49195400817161083
 0.00876729939642769 -0.05937652172766984 -0.01407154713260538  0.14347859831050970 -0.05681228117377826  0.08167026850899398  0.48980079640372820
-0.07524874085666940  0.07398612474931457 -0.03637385401543338  0.20954963396406628 -0.06544929917830643  0.06939655109309445  0.48741403705972980
 0.15217968702681130  0.03872412324677008 -0.01659542555326279  0.16329204399275680 -0.08528894663084909  0.06378820146227375  0.48681079233898330
-0.02954221792637873  0.02404154645325465 -0.00051348635741778  0.12538144915550356 -0.10458417796973729  0.05769209317933088  0.48607129848885310
-0.07966010244177757 -0.03082462040573835  0.01485785119786771  0.09929467565706532 -0.12078306483520966  0.05085223884009971  0.48517360660655273
 0.00327654330741231 -0.11739153527565459  0.03450712282187914  0.07060488710352042 -0.13548367191937840  0.04413964124994827  0.48434853909997330
 0.05177781705979242  0.03403124879646652  0.02533544496841867  0.05427738560451616 -0.16178842225112455  0.03690007475492173  0.48310388954958694
-0.03444832176414656  0.21174351339619304  0.01785047866355411  0.03710468746284504 -0.18531647926252687  0.02968387027348776  0.48192861058434167
 0.02926582119652267  0.07238424685738244  0.01649045794491440  0.01794842950120552 -0.22036774184326768  0.02264001563858337  0.48054917939863995
-0.00930359719135737 -0.05898259729957640  0.01738865387950525 -0.00183098438116474 -0.26737152530505430  0.01570816785663299  0.47893830167992113
-0.01100693521023655 -0.05723458291261907  0.00015421850304980 -0.01652143085330740 -0.22778276984424153  0.00793886370418426  0.47899903265642974
 0.00266417865275171 -0.07805144863024730 -0.01438520597435636 -0.03187433742091987 -0.19463497012041384  0.00025502940041044  0.47893711007612094
 0.00207052442738181 -0.02299626526294208 -0.03602257402940025 -0.04585721391438555 -0.17057015142739362 -0.00749581168463096  0.47869078844400680
 0.00143772345470201  0.03705339211950814 -0.06638932112046723 -0.05795563654037403 -0.14448454109184533 -0.01540893747434574  0.47847556224758026
-0.00503579574984014  0.01584492661434770 -0.03412057322980568 -0.08350089344849873 -0.12804288665775262 -0.02218710717490744  0.47813456931327336
-0.00638787183901346 -0.00770551265157412 -0.00798476194996671 -0.10610357760735980 -0.11094951062027335 -0.02920498236819421  0.47779242987255730
 0.01648740144562990  0.03165986638679623  0.02135926004447821 -0.14019894475939870 -0.09226055193174176 -0.03531129061017100  0.47753849627688650
-0.01761983102327867  0.09326098977040542  0.06107903282570188 -0.18639684617767577 -0.07304461151923299 -0.04045064627443214  0.47735514684099240
 0.02393273489209118 -0.02924586735590722  0.02869709208752024 -0.14498654056432397 -0.05809953622356941 -0.05258711146934239  0.47665449758976075
 0.01518851848490133 -0.17200859011102917  0.00263202042262105 -0.10999282820233054 -0.04271032155540739 -0.06436494507406987  0.47598448012450530
-0.05623171643885114 -0.07052061472445757 -0.02211824954460349 -0.08485430914745881 -0.02772719145663146 -0.07433352351929150  0.47542294553417430
-0.00221047873444504  0.01612502106838930 -0.05413014155652743 -0.05828292402739520 -0.01364441033336864 -0.08348200050327104  0.47489923851832927
 0.05345100570172545  0.05794878699005087 -0.03727234603869632 -0.03700283678997566  0.00674876424342852 -0.09903431205022514  0.47407120407241520
-0.01776299420230823  0.12523574755489034 -0.02364910626982356 -0.01606087105306016  0.02577988014790845 -0.11304273287323004  0.47331932926844744
-0.00807954275677965  0.04563206139587464 -0.01792421021428785  0.01045003031011555  0.05007557313444733 -0.13348859640555820  0.47224501697393767
-0.00196356648930000 -0.03208497769223410 -0.01375671791109866  0.04164401462719438  0.07992800385262612 -0.16060426366002495  0.47083886695140990
 0.00707693202890778 -0.03320530310838019  0.00456277440460286  0.03847129229321374  0.06956071226239198 -0.13939629529641132  0.47184029122945290
-0.00649389809151605 -0.04610880882857472  0.02047047620868706  0.03798814767791941  0.06216148424042724 -0.12177063244932544  0.47266368300965905
 0.00535159271318856 -0.02392000213595528  0.04401176361963673  0.04021077453255521  0.05913871180117333 -0.10929432376151524  0.47322994344234504
-0.02079840893460766 -0.00610798175139784  0.07634540878669066  0.04079018050539435  0.05532311891872407 -0.09576381725418197  0.47384893170428490
 0.03640458619193419  0.01826978283255446  0.04538098721068930  0.05132826599380318  0.05492316386261414 -0.08707820118801694  0.47422787179476955
-0.02266477751163685  0.05013343507391457  0.01993420458384590  0.06021292890835427  0.05445962590797290 -0.07814799411549062  0.47461902773946790
 0.01327177168648982  0.02756657983997904 -0.00424070193855042  0.07406101567993063  0.05230303490665567 -0.06785752306625967  0.47507931447712004
-0.00431248089741228  0.01311439065386438 -0.03478317601856237  0.09354982863679037  0.04890415532343361 -0.05677918848135750  0.47558096931080907
-0.00562852059033419 -0.02265649169108289 -0.02254514491568879  0.07236955654726626  0.05471198266782815 -0.05165906531210696  0.47577322231501040
 0.00470277874668602 -0.06969665173780550 -0.01350545451754492  0.05413002787371194  0.05994237703188682 -0.04610474917153341  0.47598825139028390
-0.00332173930194608 -0.02795646502892258 -0.00894451169856562  0.04072242045095368  0.06349993440295770 -0.03987337683974745  0.47623928785535650
 0.02795736501649657  0.00948095914247767 -0.00352355724606112  0.02689175076241520  0.06663495642476613 -0.03374441657054333  0.47648651570246120
-0.05688543543987060  0.02252753330080024 -0.00195583693067772  0.01375393441157020  0.07340677860514899 -0.02722710325809754  0.47674571638779406
-0.00961268217884972  0.04339623218371581 -0.00029926234587982  0.00117698786145197  0.07922735461706742 -0.02071201377046552  0.47700694331660354
 0.07519079153682147  0.02524555162846844  0.00314635516503397 -0.01561307779786819  0.08920799455502370 -0.01442542480063172  0.47724933372873790
 0.01179604925610277  0.01418164275560960  0.00787206361341765 -0.03627624902534576  0.10345113757749520 -0.00831689486917147  0.47747583599648324
-0.08750965385961370 -0.02007406545028221  0.00309088826024517 -0.02867976500157533  0.08679324862540500 -0.00089538093862559  0.47782136088943505
 0.03210455548242273 -0.06493533189182242 -0.00062682811701124 -0.02318948666728805  0.07244917373789468  0.00640628789246643  0.47815727295510720
 0.00948461324041279 -0.02458167243642322 -0.00572235341894564 -0.02062952376692443  0.06124397335976709  0.01371841210973742  0.47848813987675287
 0.01532944447244574  0.01292277070627259 -0.01322144157060819 -0.01737027145657531  0.04922308558501078  0.02119769503607907  0.47882934806593220
-0.03324480770825048  0.01854980817400038 -0.00373349551509270 -0.01754295563407825  0.04133371299804543  0.02753446254323086  0.47910491134088950
 0.01622929997721844  0.03266439197947452  0.00379633523432251 -0.01742489697033220  0.03305693472458242  0.03410420383011255  0.47939337890747470
-0.00229376525346658  0.00791375080020721  0.01414791148476779 -0.01713411715899014  0.02482640490945951  0.03981249100769558  0.47963797751583603
 0.01300352276148625 -0.01964473476959606  0.02908644522723501 -0.01702330468303356  0.01705318734379023  0.04459995943878998  0.47983563538642166
-0.02173076735782745 -0.00458234685572872  0.01151278813619313 -0.01575233092048901  0.00613108772960772  0.05604797165207517  0.48037529328901630
 0.01038654009751983  0.01038336707730095 -0.00259790068931430 -0.01460611972599200 -0.00470892163305288  0.06715570774403710  0.48089802413938104
 0.00077538019432541  0.00111461761242404 -0.02021970261482196 -0.01333027975841310 -0.01420282764328433  0.07653381747718957  0.48133066234985900
 0.02167174527320642 -0.00861739016613088 -0.04489725518976383 -0.01180386547592211 -0.02283433011530893  0.08512439706981670  0.48172238776663470
-0.04542133181035585 -0.00149000887241977 -0.01993915710551470 -0.01204344167174244 -0.03794626705950908  0.09986095674628281  0.48243596592628510
-0.00393204300867526  0.00656093379305185 -0.00006983480872514 -0.01192125766567132 -0.05155198671142394  0.11311653789508863  0.48307236555084127
 0.05034579002508171 -0.00122701246449802  0.02383212601307007 -0.01314363818490034 -0.07129175615536508  0.13254531735163227  0.48403187312310210
-0.00626125418486452 -0.01130098721349084  0.05727525741212031 -0.01580380785665086 -0.09742295282093462  0.15837059412184273  0.48532688880504420
-0.02840013692640309  0.00303645969665213  0.02391831026238783 -0.00806522934263892 -0.07726113084103865  0.13785258319470392  0.48419387933918057
 0.01569873300616673  0.01551326979748820 -0.00345576870460578 -0.00103929962296799 -0.06054435865641804  0.12076987059138662  0.48324126374085420
-0.00718479900401614  0.02596118084124457 -0.03049431915463865  0.00449117535012998 -0.04867246471229085  0.10862684648555707  0.48254706472168320
 0.03192681807428156  0.05188978860921575 -0.06509019729693705  0.00989357474542823 -0.03571065799875716  0.09547408311641614  0.48180032021596975
-0.05390626261785085 -0.02430762632165027 -0.04836545304218334  0.01684547483025692 -0.02797466797782164  0.08695851016014156  0.48129672874214646
 0.05276339532978516 -0.11517358507520156 -0.03452191115218601  0.02327274966971105 -0.01987550325183142  0.07821041842717749  0.48078119199816350
-0.05965005327929843 -0.04706336571578874 -0.03238453643683551  0.03227669917648965 -0.01097925722884377  0.06814968977784847  0.48019753640090307
 0.01411257784208698  0.01216372122749593 -0.03498036918043210  0.04384848905276890 -0.00186076015984505  0.05732487280849825  0.47957517857181875
 0.02963969241718731  0.03673186665513387 -0.00007401069369117  0.03677488538393006  0.00540497382329118  0.05227574099792594  0.47924852577401233
-0.00515656849604204  0.08052201587299622  0.02982937944359938  0.03112378300449668  0.01288438791879997  0.04680702695700834  0.47890066527152514
-0.01142711918783550  0.01439371536036941  0.07060529843836995  0.02719048410465092  0.02004681897560969  0.04067322734379342  0.47851928522657160
 0.00149114657671616 -0.06112469384195948  0.12593433243410201  0.02260263077477581  0.02668794331526346  0.03463057171166958  0.47814377695919635
 0.00549609783725069 -0.00750280579408467  0.07727856372795046  0.02169279292694175  0.03702023466211840  0.02827078057420335  0.47774604078205050
-0.00070305131840949  0.04899205917025216  0.03726952875333774  0.02028368560494043  0.04654635535302344  0.02189977140588674  0.47734936208504410
-0.00309461454646956  0.01082737406296763  0.00214828057050813  0.01995717414549883  0.05921603922835944  0.01580361674890282  0.47696184467099820
-0.00240968944959212 -0.02747474932166109 -0.04084033998776651  0.02101262073609040  0.07519640862829172  0.00993594222006893  0.47658152710254875
 0.00852831110315070 -0.01033660064322918 -0.03246689163004762  0.01215997021375903  0.06721131965528557  0.00239091285079612  0.47615063393172957
 0.00891695709297829  0.00661635915409376 -0.02731279666257573  0.00371237030413741  0.06098649324694179 -0.00500672835259209  0.47572496162805380
-0.02652503924799334 -0.00680276425610311 -0.03170793904367136 -0.00148698259153773  0.05742460655605852 -0.01237950091267790  0.47529720371628964
 0.00266513363741813 -0.02500492434717030 -0.03895554874421440 -0.00489339723654696  0.05344065647689716 -0.01993054248631636  0.47486216234803780
 0.01640992876198217  0.00583682844192310 -0.02250116183492392 -0.02197802455736919  0.05112423308283140 -0.02627941470347063  0.47448009112889306
-0.02082147578870002  0.04091826178553912 -0.00886568105178337 -0.03584525645407281  0.04885142516857335 -0.03286817284264183  0.47408731400953230
 0.03135748380108443  0.01886390590504652  0.00939133224917201 -0.06291913627272523  0.04524847030856890 -0.03858589902855895  0.47373620244774617
 0.00351668245800244  0.00202419293806010  0.03483280721791753 -0.10372917987412857  0.04056753247710833 -0.04336784454763853  0.47343009439730930
-0.03756814488960397 -0.01601944100997888  0.00928945127389125 -0.04503858879548200  0.04381771537197882 -0.05491670409070679  0.47280111783879497
 0.00319726164648526 -0.04111245600903828 -0.01471008767994603  0.00723499316588399  0.04659626257590838 -0.06612057341538738  0.47218907750995880
 0.02663787187736438 -0.01754903492058996 -0.01838726263400127  0.04253238423967243  0.04776060760557956 -0.07556234216226870  0.47166028473313080
 0.00946635325834445  0.00250883651944178 -0.00951672115148842  0.07417263999943780  0.04840017596174656 -0.08419948384415274  0.47116982449659356
-0.04219548365366252  0.01663661800627333 -0.09527689660396216  0.13840462707312100  0.05334530000077257 -0.09911370329529223  0.47038308694805810
-0.00115671700236453  0.03111215067960638 -0.16090236291487590  0.19368092064379460  0.05720622820600765 -0.11251583452952599  0.46966804665002326
 0.04366779678669174  0.04589944349881277 -0.30374653016696296  0.28912773741523780  0.06570779590895001 -0.13221956964402287  0.46865573190913057
 0.03695915086804722  0.08562842092256204 -0.52863965413451790  0.42545583710395000  0.07898783038620860 -0.15845315265189830  0.46733605310312930
-0.11589273658876968 -0.04050172079974589 -0.15994658881382529  0.26529356303687600  0.05763542313162506 -0.13737740767908100  0.46824599477612660
 0.01063286854518945 -0.19319552125592582  0.14570930299275897  0.12587551526900534  0.03888688351480701 -0.11980835635631465  0.46899183699295930
 0.06217010969420116 -0.06952885033338065  0.51458912869626120  0.02624734582021972  0.02358551155843334 -0.10728337443201011  0.46949454709550520
-0.20467258729478854  0.04503958915626613  1.01202101092441430 -0.07236920686568560  0.00730561496766409 -0.09372889512521453  0.47004153173221297
 0.38520990232733050  0.05696799675775501  0.60555601811365270 -0.19590474099890332 -0.00387394398152523 -0.08489882703413616  0.47039965504628320
-0.01343136690155532  0.08702907052739121  0.27479778269876587 -0.30882203186235296 -0.01559144576230964 -0.07583349758741613  0.47076163656871556
-0.32152389127829070  0.05308021671342049 -0.01664944740128041 -0.47789870855909010 -0.02684930652742871 -0.06541981963583685  0.47121730292792974
 0.14315283386159797  0.03361071684925864 -0.37874088949216810 -0.70206275326472180 -0.03716564120973735 -0.05421735636762795  0.47174244710009570
-0.03567404546564606 -0.04172850466007759 -0.27744145598446590 -0.52586404587312430 -0.05411693882221984 -0.04897444004628051  0.47175557767087670
-0.00436680920075856 -0.13850747730629492 -0.20840732917659624 -0.37881429000885797 -0.07081354785870353 -0.04329990362088416  0.47180148899536584
 0.06200585193167558 -0.05786902578891425 -0.20405386379778234 -0.27791298928848010 -0.08522188928716548 -0.03693023938584935  0.47193833649615590
-0.03684590791143055  0.01259611571436473 -0.20569625719558110 -0.17140957416368780 -0.09832123250391203 -0.03064638628157122  0.47209747668129265
 0.02265912302228355  0.04501677569108980 -0.13760185932026080 -0.08212962812341750 -0.12136877357955796 -0.02409533649914124  0.47206597632050620
-0.02495741252608502  0.09897345432392708 -0.07649823576871914  0.00417751103323057 -0.14207798454130632 -0.01751917147487379  0.47208508459270550
 0.02499839947893124  0.02928373743501871 -0.00994136472735478  0.12125636976540420 -0.17238072259305760 -0.01128060886153022  0.47188347083467310
-0.02267490006787431 -0.04365096872037316  0.07106569887351802  0.26543684109711730 -0.21266170548349123 -0.00533433984289063  0.47145662578824050
 0.02098719499474192 -0.01996822647966411  0.05143023379812563  0.21134337380972418 -0.18066378123449486  0.00275212313781321  0.47266545234580870
-0.01648294654687317 -0.00099934173125730  0.03861433203522331  0.17214282422355404 -0.15403938746010410  0.01065493815084705  0.47374703515828664
 0.01317129550069093 -0.00642540067708443  0.04090374518752081  0.15271884166710836 -0.13501508403738713  0.01849656486017832  0.47469650916544310
-0.00019514521220010 -0.01366191677031868  0.04517979162967464  0.12764968940456436 -0.11432140538810316  0.02653847528008853  0.47572099690944720
-0.01461546938200780  0.00401167338613934  0.02911875598488783  0.13204052793316912 -0.10155087184389475  0.03324482431574179  0.47629707178721525
-0.00821098379694006  0.02459688055255217  0.01502126182353349  0.13315687202605678 -0.08826527755230582  0.04021276905998699  0.47694498356825443
 0.02907835185945643  0.01125627321449802 -0.00011586711911749  0.13804278348608903 -0.07353144033414043  0.04624614572356887  0.47738927101631823
-0.00862581737412696  0.00094838121786729 -0.01888823534201984  0.14938881849884642 -0.05823615743720939  0.05127089392657613  0.47759865304042570
-0.00678223964629778 -0.00956677965118109 -0.01248704242457388  0.11495142347116358 -0.04738623408866398  0.06358758248534964  0.47950286332737674
 0.00970801959072753 -0.02432316707283554 -0.00792976776592405  0.08362874018027733 -0.03612109192516648  0.07553321956812534  0.48132365058514440
-0.01582521211608965 -0.01012263292698203 -0.00623710846862171  0.05907090577497258 -0.02496302955592080  0.08557531773167885  0.48268537339026550
 0.00720051138816086  0.00269509819682581 -0.00421258640415286  0.03528334282915500 -0.01444946173292157  0.09474597081296521  0.48382975978669596
-0.00011635541554742  0.00729876160611698 -0.00315906503694217  0.00319463003622839  0.00049761681086959  0.11071275201871317  0.48666430232495370
 0.00024622639324844  0.01610459936107881 -0.00208101798225855 -0.02618593798745776  0.01450821679524949  0.12504287950157306  0.48909369545285410
 0.00146120441386135  0.00136409335999505 -0.00054154746643116 -0.06867119011246736  0.03207896460837996  0.14619252730293375  0.49320863015746164
 0.00574671693424539 -0.01631373011314179  0.00136661439898545 -0.12424697134354380  0.05342322300844946  0.17440899754590988  0.49907186987140610
-0.01333107073950075 -0.00015673083701641  0.00056704684602901 -0.08478071896698054  0.04746081549927547  0.15142584151496946  0.49227152533641470
 0.00090716794657491  0.01773746786998316 -0.00020603325447285 -0.05222846031250811  0.04350650240247860  0.13223790972771832  0.48641114096995750
 0.01141293558649287  0.00418553021737006  0.00046627034994591 -0.03067176173692020  0.04257046768315798  0.11850770358596830  0.48189452845330600
 0.01008679156024218 -0.00956628139396011  0.00213561864116299 -0.00782628955378220  0.04113934414083924  0.10366232476661986  0.47709717622576050
-0.03131661995299841 -0.00370731788942798 -0.00363860471237883  0.01122808877351405  0.04171199229571072  0.09393730628068406  0.47360485064689340
-0.00298687979577604  0.00202749244308186 -0.00812426237084397  0.02950346588814128  0.04231196411090087  0.08395603352200719  0.47004086593828990
 0.03543224379342407 -0.00262396083180856 -0.01671976478285713  0.05539258825889318  0.04148283247084959  0.07252202539082479  0.46615168409285780
 0.00588041679310350 -0.00906245503671109 -0.02997017461381536  0.08803324578495295  0.03951691674847910  0.06024119665251716  0.46208952551503900
-0.04171323980618757  0.00226353513938662 -0.00966735597439210  0.07130151688062607  0.04592575815312935  0.05436055805721704  0.45934888477396760
 0.01471580500517829  0.01518773669863067  0.00703188537756949  0.05834660953293975  0.05183280635392250  0.04801539288052290  0.45650738800778740
 0.00504064970362061  0.00698913640351796  0.02756923106796242  0.04986292411647370  0.05606080364382254  0.04093036912964922  0.45354847383547860
-0.00020915747171628  0.00069594087680466  0.05560941387802750  0.03955995638988274  0.05975841956561057  0.03394368819419166  0.45064332495898060
-0.00134374200843803 -0.00588669596637228  0.03082628488706804  0.03961428020287241  0.06782934728089857  0.02662493113825289  0.44742815112541434
-0.00193986556385285 -0.01522097525139619  0.01081258699725805  0.03818346401706523  0.07479470439878022  0.01928938086080190  0.44426423157521440
 0.00501544383061394 -0.00569357443900959 -0.00919978872985151  0.04033264078039488  0.08650305773071487  0.01227577788178048  0.44094991598870953
-0.00228497953783579  0.00331601623437878 -0.03544290055367420  0.04686683766395367  0.10309275994361891  0.00553354978346154  0.43746513278948695
 0.00023957246350317  0.00443286281341471 -0.01925231211585521  0.02190090551065961  0.08430352525925350 -0.00319914693862642  0.43521198584353980
-0.00003983995881590  0.00692965173915904 -0.00642896696493990 -0.00100966354045437  0.06816694721529037 -0.01175831958961988  0.43286855470252383
-0.00109936480915988  0.00463916105326965  0.00326513131095320 -0.01869658001057410  0.05560072314123879 -0.02027880271816430  0.43038906592899450
-0.00554819436751240  0.00376094484748479  0.01503991433161632 -0.03535200839079178  0.04207958437504045 -0.02900236971404818  0.42793242272468720
 0.01236634528786115 -0.00347952812173448  0.01404435348689692 -0.06139518959844172  0.03344240211850018 -0.03636114712478682  0.42538402581455803
-0.00430129561639252 -0.01316905326374128  0.01327187554789540 -0.08479032469401665  0.02432813818582186 -0.04399073040275037  0.42283461929300940
-0.00169869747701854 -0.00265550697066778  0.01873750110001780 -0.12021594164239380  0.01539755882329183 -0.05064180623270097  0.42035109093259960
 0.00604517585794687  0.00887099018283509  0.02848451905566486 -0.16784436675113273  0.00712847148681904 -0.05624021036143897  0.41792058888057354
-0.01140303109532557  0.00163288451189302  0.00627392185100278 -0.12695522479329470 -0.00574405488423656 -0.06945028904964950  0.41510192471409980
 0.00808636591922041 -0.00543774718968641 -0.01226139999652707 -0.09249521498344042 -0.01846961699386527 -0.08227252870687177  0.41230624321744014
-0.00536311650376456 -0.00271691912953009 -0.03610045391614481 -0.06834645339711459 -0.02940796581853738 -0.09311126249227311  0.40959224277212570
 0.01119761147707758 -0.00119193807006630 -0.06864062015677269 -0.04306535806358867 -0.03925299207124990 -0.10304360240802735  0.40690696309973284
-0.01769539142642032  0.00274017885126596 -0.03954397027532418 -0.02082119680362376 -0.05735042303122499 -0.12004630332861260  0.40399116167947390
 0.00156823466959404  0.00762890131288545 -0.01586193355668099  0.00058184660419105 -0.07352106233421480 -0.13534596648547415  0.40113302296146885
 0.01418330712390766  0.00453201442660193  0.00682927699923036  0.02954815711758728 -0.09756206796906702 -0.15774267854207440  0.39803102766080780
 0.00466213480565050  0.00293767521410957  0.03590324761295358  0.06529319227992010 -0.12979768589224538 -0.18749359483215608  0.39467808918016467
-0.02152944236848701 -0.00388853334378650  0.02195786332451437  0.05150042893994422 -0.10267752685103343 -0.16396273502092315  0.39314601279115180
 0.00193655774200950 -0.01246275961920187  0.01145316170285142  0.04142364679780124 -0.07999188364708597 -0.14438199194740223  0.39147932915738250
 0.01446590536721327 -0.00611715486044193  0.00395593444306623  0.03632240672217795 -0.06340280925025156 -0.13047729596258345  0.38961806812625020
-0.00548885233258924 -0.00128732118570468 -0.00578061522063581  0.02984463108344900 -0.04531064776779456 -0.11540876523290107  0.38779663075305076
 0.00024630553536793  0.00474288038326728 -0.00160733829295771  0.03048141302357672 -0.03469033495638899 -0.10569305349908362  0.38579420580092394
 0.00416296472073839  0.01363900311215829  0.00135954756200440  0.03035874265738036 -0.02343279026684282 -0.09570528220237295  0.38380090678369794
-0.00897342792219085  0.00247905945991742  0.00394017798022831  0.03093531624103594 -0.01183143494613156 -0.08422700964254458  0.38186041786696480
 0.01123850377300558 -0.01015094849316412  0.00772528551010231  0.03287479979924930 -0.00065744131658087 -0.07188987612273474  0.37995179475355656
-0.01528467803354712 -0.00097247625593962  0.00346605009356081  0.02519515106660217  0.01329811960658732 -0.06605111103219502  0.37780508368834500
 0.00329544296220158  0.00773416033076595 -0.00002226752919277  0.01815973731776244  0.02725963059489613 -0.05973736061747213  0.37567582149622947
 0.00795428903019978  0.00684018942241899 -0.00379342061409665  0.01261441241976910  0.03950569671386422 -0.05269480959323077  0.37357482353771410
-0.00014966659060690  0.00940808180088386 -0.00875264461749856  0.00729559826867223  0.05050133937060847 -0.04577291160705243  0.37147141816710980
-0.00640306068108978 -0.00566476046738287 -0.00548925589918578 -0.00023848354513433  0.07078554684669805 -0.03836217633008730  0.36937342641252440
-0.00557443157591595 -0.02571641579322291 -0.00285609889759641 -0.00709586772826734  0.08893480939160490 -0.03096860072344818  0.36727784875737823
 0.01670820431813378 -0.00188857613996057 -0.00097308680469663 -0.01714014798663703  0.11571395110116292 -0.02376546216938304  0.36516436148437037
-0.00602202710332979  0.02610867813826989  0.00118776036915929 -0.03038750054655361  0.15150126064003208 -0.01669499167339499  0.36303506578557710
-0.00235694774906121  0.00033601557796822  0.00179374243013141 -0.02038753404335351  0.12204885047945133 -0.00863812319337729  0.36102326355655530
 0.00036896176105021 -0.02759683965362139  0.00242377108601107 -0.01207922556224339  0.09746927416733110 -0.00067772087411898  0.35900205516582810
-0.00108902222549215 -0.00965424851844425  0.00383930874068335 -0.00645739984652229  0.07959940955591124  0.00733349675843731  0.35697473880622277
-0.01172761163590914  0.00643193045074042  0.00580764225021560 -0.00051791773704220  0.06008589289262256  0.01550992327123808  0.35495641396205510
 0.02491155973943052  0.00826439324961463  0.00366007872578871  0.00447633970542505  0.04872361519179112  0.02253881608832261  0.35288146431363440
-0.01127382935877087  0.01337378966514438  0.00186271182194419  0.00928343328561765  0.03667521493028021  0.02980759009804998  0.35081734287010440
 0.00090137797669005  0.00442340659081594  0.00020101553564782  0.01594112739482405  0.02419080923502903  0.03617142595158347  0.34871710005502243
 0.00123473070697568 -0.00499639217914723 -0.00183228209864398  0.02423737992532078  0.01211569429969587  0.04157324760320404  0.34657787695641160
-0.00537274963984659 -0.00258418972974776 -0.00139790055213149  0.02055007583910123 -0.00257886096140406  0.05393562870214759  0.34472224699253073
 0.00065986126700930 -0.00157575280600304 -0.00110472564745521  0.01780235928436737 -0.01730163820368674  0.06594157164431368  0.34285256859440750
 0.00392608399773313  0.00192241354839418 -0.00135846146178768  0.01598777906419254 -0.03025713395780538  0.07614556925230753  0.34090797590607000
 0.00550760626167020  0.00743507308233415 -0.00182779162079381  0.01359250755023728 -0.04189410615787850  0.08553175937191342  0.33892917387176490
-0.01483393010363056 -0.00216015821460096 -0.00058326776742071  0.01472726224184029 -0.06330649886276926  0.10130285885908913  0.33721896068048485
 0.00151878420416637 -0.01338291702724054  0.00045074751612287  0.01527569352468948 -0.08247625445541897  0.11553484575699667  0.33544432381555017
 0.00988321969859922 -0.00475200413781021  0.00186131410891282  0.01758542703626649 -0.11069963837805118  0.13618380553699436  0.33393909273749110
-0.00444321245775936  0.00326571049258757  0.00382716956731101  0.02189692552544058 -0.14837639295589550  0.16348149964061430  0.33271352345070560
 0.00056287384144233  0.00370163115514094  0.00184296437305267  0.01177598129587141 -0.11759019381608429  0.14260828141549228  0.32946366335942157
-0.00791119533240024  0.00586045602082215  0.00041613292459365  0.00259075676276400 -0.09189856225574586  0.12530617097299618  0.32636440255033170
 0.01487799841666778  0.00075512545256867 -0.00234579471194691 -0.00416290365039621 -0.07337448464286726  0.11313633932341165  0.32347886258871433
-0.00714133980289841 -0.00541661471707870 -0.00679625361418389 -0.01041131377841830 -0.05324109794860547  0.09991491784038369  0.32054781672206040
 0.00088924940620013  0.00000652420403321  0.00085516147431393 -0.02120095195823616 -0.04081766533251580  0.09152839000645364  0.31783140473209990
-0.00274702655232696  0.00558758580388346  0.00684206857019815 -0.03072792623245442 -0.02786181499374765  0.08289687021480807  0.31510233523972936
 0.00358800837856120  0.00328632952931863  0.01663549713312860 -0.04595148840705550 -0.01370712897312308  0.07291402963067836  0.31232683945687567
-0.00174352471253475  0.00233918741444829  0.03134663373116957 -0.06696353769732240  0.00079676865530235  0.06215070562501247  0.30952984519259290
-0.00092281777834748 -0.00308410924143057  0.01084986054096033 -0.04599096889484127  0.01241181903444046  0.05729139395410523  0.30690089797361900
-0.01104090552100292 -0.00985226436290062 -0.00595328542859519 -0.02794356097373077  0.02434968172741743  0.05200111360995008  0.30425826990524960
 0.02386159234154144 -0.00484220781851873 -0.02619407115211682 -0.01561251316462592  0.03586274840437150  0.04604483341800553  0.30160766429039126
-0.00185281368782721 -0.00086334203877245 -0.05375796989338838 -0.00349945161554886  0.04662733707602822  0.04019458742299003  0.29897070710479140
-0.01788013309605383  0.00297141261448982 -0.02990163506936204  0.01268817262608423  0.06267782870716855  0.03392634586674704  0.29624605190664866
 0.00470234173252069  0.01043702392390636 -0.01062832068134636  0.02725117640693051  0.07757706364023746  0.02766779527441050  0.29353893869851790
 0.00400498858332835 -0.00636705850572719  0.00824256559373334  0.05024386095633411  0.09695629765301465  0.02160581562323718  0.29076950919366884
-0.00869771480011181 -0.02996051474836459  0.03280573134972013  0.08153879534268886  0.12105611923246318  0.01568902766590757  0.28793348768326577
 0.01764057617116175  0.00616966109790340  0.01878219783589824  0.05250889540024681  0.11098545309805855  0.00869751215141763  0.28558064205748257
 0.01540208319040149  0.04902400293361408  0.00798445576739287  0.02790988995605959  0.10340887497144036  0.00180733312708467  0.28319133369191163
-0.04695790627736432  0.01171729355116921 -0.00105074186672451  0.01000631246748760  0.09973385352107116 -0.00511301832482538  0.28075617947953490
 0.02481965564414317 -0.02712693136537525 -0.01295983181964965 -0.00897669856048122  0.09555282015663877 -0.01219012787460041  0.27833709731705170
-0.00976938080185945 -0.00865422325404639 -0.00607919150976548 -0.02364546347533122  0.09304997869089848 -0.01818655261115458  0.27583077550786160
 0.00561202051787436  0.00786508690744446 -0.00074104417015502 -0.03824723317485209  0.09076480512162104 -0.02440630262252408  0.27333560829407394
 0.00033728586073812  0.00439332077741939  0.00352880307716432 -0.05598381036159409  0.08596882523255661 -0.02979122125906306  0.27082073967658227
-0.00506648800732114  0.00369976938296487  0.00897377132196443 -0.07622532718096933  0.07899060373557834 -0.03428643202285106  0.26827905946351800
 0.01128782737975287 -0.00449269686769132  0.00688558405787826 -0.07802031800438713  0.08799219048782228 -0.04521814151044233  0.26593044701865737
-0.00294441936440428 -0.01586358557706729  0.00611614612623282 -0.08168324116279685  0.09607839435147117 -0.05582059948039098  0.26357314161214510
-0.00353286258145661 -0.00124283757759837  0.00112570422487182 -0.08397721936969091  0.10067826834402553 -0.06475439843960219  0.26115912527042320
 0.00662601765029683  0.01606176043338501 -0.00857950325740996 -0.08280698979646715  0.10400361678010252 -0.07292973755628729  0.25871654596045590
-0.01081419670009598  0.00004378770833029  0.01573624301567782 -0.10584121274477050  0.11758812908919569 -0.08702545399529166  0.25649543347457420
 0.00876982592780410 -0.01670036507851624  0.03474821324027991 -0.12379305189957540  0.12863066606423226 -0.09969427184968208  0.25422173616248800
-0.00832225792834413 -0.00906367403800667  0.06861832736279633 -0.16099182799574980  0.15045032679345638 -0.11831155649542800  0.25216642938022140
-0.00010784127049994 -0.00583574644755353  0.12012430173653582 -0.21863569074494724  0.18339192686124810 -0.14309228951229946  0.25033814861115455
 0.00931225586185600  0.01265060690676086  0.04482360763464297 -0.12835210285111714  0.13573580509721436 -0.12321807574274773  0.24686659031785127
 0.00303819560739164  0.02610697553300730 -0.01421871614327642 -0.04810332097584115  0.09413277645885422 -0.10665354232414162  0.24351620646932232
-0.01142580716131390  0.06335302439618683 -0.10529821266735816  0.01018896688299010  0.06059701862171395 -0.09485178519686677  0.24034638199946200
 0.02801773147528088  0.14134743820327503 -0.24074870305219234  0.06603742858729691  0.02482550530789661 -0.08207984258633545  0.23714604832808597
-0.04410404453374352 -0.06609287030167527 -0.05957612270439771  0.14847186441896204  0.00062089710503334 -0.07375587509195125  0.23407283789842320
 0.05969387993520025 -0.29734009629091135  0.08364424015848781  0.22243804524455105 -0.02476763199183305 -0.06521235397813677  0.23099981482597534
-0.09647478993312887 -0.19904748676120450  0.28921953853566150  0.33701702058924476 -0.04935694147630287 -0.05538624400423808  0.22784766558211930
-0.11363949289823208 -0.17978923111796014  0.58935122132648140  0.49228719367052550 -0.07203857118170068 -0.04480519188241505  0.22463450334370620
 0.32502018675820743  0.17191540467355350  0.21740540879192863  0.35218371292646355 -0.10810867433490615 -0.03992466146015287  0.22187297517046622
-0.10627112014343745  0.61842709765636420 -0.08785649832895581  0.23312327347259143 -0.14369163755101605 -0.03463278005234301  0.21908393233087353
-0.06437952340769251  0.22853564979563679 -0.43318426637979610  0.15119056896344285 -0.17447748786576042 -0.02866582745325465  0.21620843418866730
 0.05422231570561524 -0.13485821597202974 -0.89472058739709960  0.06795744408539138 -0.20245519616399393 -0.02277152292491659  0.21330842476828510
