0.008228151635625278
-0.024684454906875847
-0.024684454906875847
0.008228151635625278
0.0
0.0
0.0
-0.024684454906875833
0.008228151635625278
-0.008228151635625278
-0.008228151635625278
-0.008228151635625264
-0.024684454906875847
-0.024684454906875847
-0.04936890981375172
-0.024684454906875875
-0.008228151635625292
-0.008228151635625292
0.0
0.0
0.008228151635625292
0.0
0.024684454906875875
0.02468445490687582
0.0
0.008228151635625292
-0.02468445490687582
0.008228151635625292
0.0
0.0
0.024684454906875847
0.024684454906875847
0.0
-0.049368909813751694
0.024684454906875847
0.0
0.0
0.008228151635625264
-0.024684454906875847
-0.008228151635625292
-0.008228151635625292
0.008228151635625292
0.024684454906875847
-0.008228151635625264
-0.02468445490687582
0.024684454906875847
-0.024684454906875847
0.049368909813751666
-0.049368909813751666
0.008228151635625278
-0.02468445490687582
-0.049368909813751666
0.024684454906875847
-0.024684454906875847
-0.008228151635625264
0.0
-0.008228151635625292
0.008228151635625264
-0.024684454906875847
-0.09873781962750333
0.17279118434813084
0.17279118434813082
-0.5677746040754709
0.04936890981375164
0.1727911843481308
0.09873781962750339
0.17279118434813084
0.008228151635625264
0.024684454906875847
-0.008228151635625264
-0.024684454906875847
-0.008228151635625278
0.024684454906875847
-0.008228151635625292
0.09873781962750336
-0.02468445490687584
-0.09873781962750335
-0.04936890981375168
0.02468445490687582
0.09873781962750336
0.09054180920920474
-0.04936890981375169
-0.024684454906875833
0.024684454906875833
-0.049368909813751666
-0.008228151635625292
-0.049368909813751694
0.02468445490687582
-0.04936890981375164
-0.02468445490687582
0.04936890981375164
0.008228151635625236
0.02468445490687582
0.09873781962750333
-0.024684454906875875
-0.02468445490687582
0.02468445490687582
0.049368909813751666
-0.049368909813751666
0.049368909813751666
0.024684454906875847
0.02468445490687582
-0.024684454906875847
-0.049368909813751694
-0.008228151635625292
0.049368909813751666
0.02468445490687582
0.04936890981375168
-0.09873781962750336
0.049368909813751666
0.008228151635625278
0.0
-0.024684454906875847
-0.09873781962750333
0.024684454906875847
0.008228151635625278
-0.024684454906875847
-0.008228151635625278
0.049368909813751666
-0.024684454906875836
0.024684454906875836
-0.04117289939545306
-0.024684454906875847
-0.008228151635625278
0.0
0.02468445490687582
0.008228151635625264
-0.024684454906875833
0.0
-0.02468445490687582
-0.049368909813751666
0.304473751735462
-0.17279118434813084
-0.5759706144937696
0.04936890981375175
0.17279118434813084
0.09873781962750333
0.049368909813751666
-0.016488444488577222
0.0
0.024684454906875836
0.00822815163562528
-0.04936890981375167
0.02468445490687584
-0.04936890981375168
0.024684454906875836
0.008228151635625278
-0.024684454906875836
0.0
0.049368909813751666
-0.008228151635625264
-0.02468445490687584
0.04936890981375167
-0.024684454906875833
0.0
-0.04117289939545305
-0.024684454906875847
-0.024684454906875847
-0.02468445490687582
0.0
-0.008228151635625292
-0.008228151635625292
0.0
0.049368909813751694
0.02468445490687582
0.008228151635625278
0.02468445490687584
0.008228151635625278
0.04117289939545306
-0.01648844448857722
-0.01648844448857722
0.00822815163562528
0.008228151635625278
0.00822815163562528
-0.00822815163562528
0.0
0.024684454906875836
0.04117289939545306
-0.008228151635625278
0.0
0.02468445490687584
-0.008228151635625278
0.0
0.00822815163562528
-0.008228151635625278
0.00822815163562528
-0.024684454906875836
0.024684454906875836
-0.024684454906875836
0.02468445490687584
0.024684454906875833
-0.024684454906875833
-0.049368909813751666
-0.04936890981375167
-0.024684454906875836
-0.024684454906875836
-0.04117289939545306
-0.024684454906875836
-0.008228151635625278
-0.09054180920920474
0.049368909813751666
0.0
0.17279118434813087
0.31266976215376063
-0.567774604075471
-0.09873781962750339
0.1727911843481308
0.17279118434813084
0.0
-0.01648844448857722
0.09873781962750337
-0.09873781962750336
0.024684454906875847
-0.024684454906875847
-0.049368909813751666
-0.008228151635625264
-0.02468445490687582
-0.024684454906875833
0.049368909813751694
-0.09873781962750335
0.024684454906875847
-0.008228151635625264
0.0
0.049368909813751666
0.0
0.0
-0.04936890981375165
-0.04936890981375167
-0.09054180920920474
0.008228151635625264
0.024684454906875847
0.0
-0.09873781962750336
0.049368909813751666
0.04936890981375167
-0.04936890981375168
0.04936890981375167
-0.049368909813751694
-0.09873781962750336
0.01648844448857722
0.049368909813751694
0.008228151635625264
0.049368909813751666
-0.17279118434813087
0.17279118434813087
0.008228151635625264
0.0
0.008228151635625236
-0.09873781962750335
0.17279118434813084
-0.09873781962750336
0.0
0.0
0.049368909813751694
0.04936890981375164
-0.049368909813751694
-0.049368909813751666
0.049368909813751694
0.09873781962750336
-0.09873781962750339
0.09873781962750333
-0.17279118434813084
0.02468445490687582
-0.09873781962750333
0.09873781962750333
-0.04936890981375164
-0.049368909813751666
0.008228151635625292
0.049368909813751694
0.0
0.008228151635625292
0.3126697621537605
-0.5759706144937696
-0.04936890981375175
0.04936890981375164
0.17279118434813084
0.17279118434813087
-0.02468445490687582
-0.008228151635625236
-0.008228151635625347
-0.024684454906875875
-0.09873781962750339
0.02468445490687582
-0.008228151635625292
-0.049368909813751694
0.04936890981375164
0.049368909813751694
0.04936890981375164
-0.09873781962750328
0.17279118434813084
0.008228151635625292
-0.09873781962750339
0.09873781962750339
0.09873781962750344
-0.09873781962750333
0.09873781962750333
-0.09873781962750333
0.0
0.024684454906875833
-0.008228151635625264
0.049368909813751666
-0.049368909813751694
0.024684454906875833
0.09873781962750336
-0.02468445490687582
0.024684454906875875
0.04936890981375164
0.04936890981375175
0.008228151635625292
-0.024684454906875875
0.02468445490687582
-0.049368909813751694
0.049368909813751694
-0.09873781962750333
0.008228151635625347
-0.02468445490687582
-0.02468445490687582
-0.02468445490687582
-0.02468445490687582
-0.02468445490687582
0.04936890981375164
-0.02468445490687582
-0.02468445490687582
-0.09873781962750333
-0.02468445490687582
0.049368909813751694
-0.02468445490687582
0.008228151635625292
-0.04936890981375164
0.00822815163562518
-0.04936890981375164
0.02468445490687582
0.008228151635625292
-0.02468445490687582
0.049368909813751694
-0.049368909813751694
0.0
-0.049368909813751666
0.3126697621537606
0.04936890981375164
-0.567774604075471
0.008228151635625292
0.17279118434813084
0.16459517392983225
0.09873781962750333
0.024684454906875875
0.024684454906875875
0.008228151635625236
0.02468445490687582
-0.008228151635625292
-0.008228151635625292
0.0
-0.008228151635625292
0.0
0.0
-0.02468445490687582
0.02468445490687582
-0.02468445490687582
-0.008228151635625236
-0.024684454906875875
0.0
-0.024684454906875875
-0.02468445490687582
-0.024684454906875875
-0.024684454906875847
-0.02468445490687582
-0.024684454906875847
-0.008228151635625278
0.008228151635625264
-0.008228151635625292
0.02468445490687582
0.024684454906875847
0.0
-0.008228151635625264
0.008228151635625236
0.0
0.049368909813751694
-0.02468445490687582
0.008228151635625292
0.02468445490687582
0.0
-0.008228151635625292
0.0
-0.02468445490687582
0.008228151635625236
0.0
0.008228151635625292
0.008228151635625264
0.0
0.0
0.024684454906875847
0.024684454906875847
0.02468445490687582
0.0
-0.09873781962750333
-0.024684454906875847
-0.024684454906875847
0.0
0.0
-0.024684454906875847
-0.008228151635625292
0.008228151635625264
-0.024684454906875833
-0.024684454906875833
0.17279118434813084
0.1727911843481309
-0.5677746040754709
0.024684454906875986
0.17279118434813084
0.17279118434813084
0.09873781962750335
0.008228151635625264
0.0
0.0
0.008228151635625264
-0.02468445490687582
-0.008228151635625264
0.008228151635625264
0.0
-0.02468445490687582
0.024684454906875847
0.0
-0.008228151635625292
-0.008228151635625292
0.0
-0.008228151635625264
0.0
0.008228151635625264
-0.024684454906875833
-0.024684454906875847
-0.024684454906875836
-0.024684454906875836
0.008228151635625285
-0.008228151635625278
0.008228151635625278
0.02468445490687584
0.02468445490687584
0.024684454906875836
0.008228151635625278
0.008228151635625278
0.008228151635625292
0.02468445490687582
0.008228151635625278
0.0
0.0
0.0
0.008228151635625292
-0.024684454906875833
-0.024684454906875833
-0.024684454906875833
0.0
0.024684454906875847
0.0
0.0
0.024684454906875847
0.024684454906875847
0.02468445490687582
-0.049368909813751694
-0.024684454906875847
-0.024684454906875833
-0.008228151635625264
0.0
0.0
-0.008228151635625278
0.008228151635625285
-0.02468445490687584
0.008228151635625278
0.049368909813751666
0.3126697621537605
-0.3126697621537607
-0.5759706144937695
0.09873781962750328
0.09873781962750333
0.09873781962750336
0.008228151635625278
0.024684454906875833
0.024684454906875847
0.008228151635625264
0.024684454906875847
0.00822815163562532
0.0
0.02468445490687582
0.0
0.0
0.008228151635625264
0.0
0.024684454906875847
-0.024684454906875847
0.0
0.0
-0.02468445490687582
-0.02468445490687582
-0.049368909813751666
0.0
-0.04936890981375167
-0.008228151635625278
0.0
0.024684454906875836
0.024684454906875836
0.008228151635625278
0.02468445490687584
0.0
0.02468445490687582
0.008228151635625292
0.024684454906875847
0.024684454906875847
0.008228151635625264
-0.008228151635625264
-0.00822815163562532
-0.024684454906875847
0.024684454906875847
0.024684454906875847
0.0
0.00822815163562532
0.02468445490687582
-0.024684454906875847
0.0
-0.049368909813751694
-0.024684454906875847
-0.008228151635625264
0.008228151635625264
-0.008228151635625278
-0.024684454906875833
-0.008228151635625278
-0.008228151635625264
0.0
0.024684454906875847
0.024684454906875847
0.31266976215376063
-0.04936890981375175
-0.5677746040754709
0.024684454906875763
0.09873781962750339
0.09873781962750335
0.09873781962750337
0.0
0.0
-0.008228151635625292
0.0
0.0
0.02468445490687582
0.0
0.0
0.024684454906875875
-0.02468445490687582
0.0
0.008228151635625236
0.008228151635625292
0.02468445490687582
0.02468445490687582
-0.008228151635625292
0.024684454906875875
-0.02468445490687582
-0.008228151635625292
-0.024684454906875847
-0.049368909813751666
0.02468445490687582
-0.02468445490687582
0.008228151635625278
0.0
0.0
0.008228151635625292
0.024684454906875847
-0.024684454906875847
0.02468445490687582
0.008228151635625292
-0.008228151635625264
0.008228151635625292
0.008228151635625264
0.008228151635625292
-0.049368909813751666
0.0
0.008228151635625292
-0.008228151635625292
0.0
-0.008228151635625264
0.0
-0.024684454906875847
0.008228151635625264
-0.024684454906875847
-0.008228151635625264
0.0
0.02468445490687582
0.02468445490687582
-0.02468445490687582
-0.02468445490687582
0.0
0.0
-0.024684454906875833
-0.024684454906875833
-0.008228151635625264
-0.008228151635625292
0.024684454906875833
0.0
0.008228151635625264
0.31266976215376063
0.024684454906875875
-0.5677746040754709
0.0
0.17279118434813096
0.09873781962750335
0.04936890981375167
0.008228151635625278
0.008228151635625292
0.008228151635625292
0.008228151635625292
-0.024684454906875847
0.024684454906875847
0.008228151635625264
0.0
0.0
-0.008228151635625264
0.0
0.008228151635625264
-0.00822815163562532
0.0
0.024684454906875847
-0.02468445490687582
0.0
-0.02468445490687582
-0.02468445490687584
-0.01648844448857722
-0.024684454906875836
0.0
0.008228151635625278
0.024684454906875847
0.049368909813751666
0.024684454906875836
0.0
0.024684454906875833
-0.01648844448857722
0.00822815163562528
-0.008228151635625278
0.0
0.0
0.0
-0.024684454906875836
0.0
0.0
0.0
0.0
0.0
0.008228151635625278
-3.214121732666125E-5
0.0
0.0
-0.008228151635625283
-0.008228151635625278
-0.02468445490687584
0.04117289939545306
0.02468445490687584
0.0
0.008228151635625292
-0.04936890981375167
-0.01648844448857722
-0.024684454906875833
-0.008228151635625278
0.024684454906875833
0.008228151635625278
-0.024684454906875833
0.0
0.008228151635625278
0.04117289939545306
0.3126697621537606
-0.31266976215376063
-0.5759706144937696
0.09873781962750328
0.09873781962750333
0.17279118434813087
-0.008228151635625285
0.0
0.008228151635625283
-0.008228151635625278
0.016488444488577222
0.016488444488577222
0.00822815163562528
0.0
0.0
-0.02468445490687584
0.0
-0.024684454906875833
0.02468445490687584
0.0
-0.008228151635625278
-0.008228151635625278
-0.008228151635625278
-0.008228151635625278
-0.024684454906875847
-0.024684454906875847
-0.024684454906875847
-0.024684454906875875
0.0
0.0
0.008228151635625236
0.008228151635625264
0.02468445490687582
0.008228151635625292
0.02468445490687582
0.024684454906875847
0.0
0.0
0.008228151635625292
-0.008228151635625278
0.0
-0.008228151635625264
-0.024684454906875833
0.008228151635625264
-0.008228151635625264
0.024684454906875847
0.008228151635625264
0.008228151635625292
-0.008228151635625292
-0.008228151635625264
0.0
-0.008228151635625264
0.008228151635625264
0.024684454906875847
0.0
-0.024684454906875847
0.024684454906875847
-0.008228151635625292
0.0
-0.024684454906875847
0.008228151635625264
-0.008228151635625264
-0.008228151635625236
0.008228151635625292
-0.02468445490687582
0.304473751735462
-0.008228151635625292
-0.5759706144937695
0.04936890981375175
0.1727911843481308
0.1727911843481309
0.09873781962750333
0.008228151635625264
0.024684454906875847
0.008228151635625264
0.0
-0.008228151635625264
0.008228151635625292
0.008228151635625264
0.0
-0.008228151635625264
-0.024684454906875847
0.008228151635625278
0.0
0.008228151635625278
0.0
-0.008228151635625278
-0.008228151635625264
-0.008228151635625292
-0.024684454906875847
-0.024684454906875875
-0.02468445490687582
-0.008228151635625292
0.0
-0.008228151635625236
0.0
0.02468445490687582
0.008228151635625236
0.02468445490687582
0.0
0.0
0.00822815163562532
-0.02468445490687582
0.008228151635625264
0.008228151635625292
-0.024684454906875875
-0.008228151635625292
0.0
0.0
-0.02468445490687582
0.024684454906875875
-0.008228151635625236
0.02468445490687582
-0.008228151635625292
0.0
0.0
0.008228151635625236
0.008228151635625236
0.0
0.024684454906875847
0.008228151635625264
-0.024684454906875847
-0.04936890981375164
0.008228151635625236
-0.02468445490687582
-0.049368909813751694
0.02468445490687582
0.0
0.008228151635625236
0.02468445490687582
0.008228151635625292
0.17279118434813087
0.17279118434813084
-0.567774604075471
-0.008228151635625292
0.1727911843481309
0.172791184348131
0.17279118434813084
0.008228151635625292
0.008228151635625347
0.008228151635625236
-0.008228151635625236
0.024684454906875847
0.00822815163562532
0.00822815163562532
0.0
0.0
0.008228151635625264
-0.024684454906875847
-0.008228151635625292
0.0
0.0
-0.008228151635625292
0.02468445490687582
0.0
-0.024684454906875875
-0.04936890981375164
-0.008228151635625236
-0.02468445490687593
-0.008228151635625236
0.0
0.02468445490687582
0.008228151635625292
0.0
0.0
0.0
-0.008228151635625236
0.008228151635625292
0.008228151635625236
0.02468445490687582
-0.02468445490687582
0.008228151635625236
-0.02468445490687582
0.02468445490687582
-0.008228151635625292
0.02468445490687582
-0.02468445490687582
-0.02468445490687582
0.008228151635625292
-0.02468445490687582
0.0
-0.008228151635625292
0.02468445490687582
0.02468445490687582
0.0
0.02468445490687582
-0.024684454906875875
-0.008228151635625292
-0.024684454906875875
0.0
0.0
-0.008228151635625236
-0.02468445490687582
-0.008228151635625292
0.0
0.02468445490687582
-0.02468445490687582
0.304473751735462
0.09873781962750339
-0.567774604075471
2.0570379089063198
0.1727911843481309
0.1727911843481308
0.04936890981375164
0.049368909813751694
-0.02468445490687582
-0.008228151635625292
0.0
0.024684454906875875
0.008228151635625264
0.0
0.02468445490687582
0.02468445490687582
-0.024684454906875847
-0.024684454906875847
0.02468445490687582
-0.008228151635625292
0.0
0.0
-0.008228151635625292
-0.04936890981375164
-0.008228151635625292
-0.008228151635625292
0.0
-0.008228151635625292
-0.02468445490687582
-0.024684454906875875
0.02468445490687582
-0.008228151635625292
-0.02468445490687582
0.02468445490687582
0.02468445490687582
0.0
0.024684454906875875
0.008228151635625347
0.0
-0.008228151635625292
0.02468445490687582
0.0
-0.00822815163562532
-0.02468445490687582
0.00822815163562532
-0.02468445490687582
0.02468445490687582
0.0
-0.008228151635625292
-0.008228151635625236
-0.008228151635625292
-0.008228151635625292
0.008228151635625292
0.008228151635625292
0.024684454906875847
0.0
0.02468445490687582
-0.049368909813751666
-0.008228151635625236
-0.024684454906875875
-0.024684454906875875
-0.008228151635625292
0.049368909813751694
-0.008228151635625236
0.008228151635625292
-0.024684454906875875
0.0
0.304473751735462
-0.17279118434813082
-0.5759706144937695
-2.0076689990925685
0.1727911843481309
0.17279118434813084
0.0
0.008228151635625264
0.008228151635625292
0.024684454906875847
0.049368909813751666
-0.008228151635625292
-0.02468445490687582
0.008228151635625292
0.024684454906875847
-0.024684454906875833
0.008228151635625264
0.008228151635625292
-0.008228151635625264
0.008228151635625264
0.008228151635625264
0.0
-0.008228151635625292
0.0
-0.02468445490687582
-0.049368909813751694
-0.008228151635625292
-0.02468445490687582
0.0
0.0
0.02468445490687582
0.0
0.024684454906875875
0.0
0.02468445490687582
0.02468445490687582
0.0
0.0
0.008228151635625264
0.0
0.024684454906875847
0.0
0.049368909813751666
0.008228151635625292
-0.008228151635625292
0.0
-0.02468445490687582
0.0
0.008228151635625264
-0.008228151635625292
0.0
-0.008228151635625264
0.008228151635625264
0.0
0.024684454906875847
0.024684454906875847
-0.024684454906875833
-0.049368909813751666
-0.008228151635625264
0.0
-0.024684454906875847
0.0
0.0
-0.008228151635625292
0.008228151635625292
0.008228151635625236
0.17279118434813084
0.31266976215376063
-0.5759706144937695
-0.0987378196275035
0.1727911843481309
0.09873781962750328
0.09873781962750333
0.02468445490687582
0.02468445490687582
0.008228151635625264
-0.024684454906875847
0.008228151635625264
0.024684454906875847
0.0
0.0
0.024684454906875833
0.024684454906875833
0.0
0.02468445490687582
0.02468445490687582
0.0
0.0
0.0
0.0
-0.024684454906875847
-0.008228151635625292
-0.024684454906875847
-0.024684454906875875
-0.008228151635625292
0.02468445490687582
0.0
0.0
0.0
0.0
0.017454545454545445
0.011636363636363639
-0.04654545454545453
-0.06981818181818181
-0.064
-0.046545454545454557
0.011636363636363667
0.04072727272727272
0.046545454545454557
0.07563636363636361
0.023272727272727223
-0.011636363636363611
0.0
0.0
0.0058181818181818334
0.017454545454545417
-0.011636363636363611
0.011636363636363611
0.0
0.03490909090909089
-0.05236363636363636
0.1105454545454545
-0.12218181818181811
-0.034909090909090945
-0.0174545454545455
-0.034909090909090945
-0.08727272727272722
0.6749545454545453
-1.1811136363636359
0.4363636363636362
0.19781818181818178
0.046545454545454557
0.11636363636363631
-0.05818181818181814
0.12218181818181817
0.03490909090909092
0.12218181818181811
0.09893181818181816
-0.06981818181818181
-0.11054545454545453
-0.052363636363636445
-0.06400000000000006
0.11054545454545461
0.07563636363636356
0.034909090909090945
0.1221818181818182
-0.06981818181818181
0.03490909090909089
0.017454545454545473
-0.1105454545454545
0.19199999999999995
0.034909090909090945
-0.029090909090909056
-0.157090909090909
0.05818181818181818
-0.023272727272727264
0.08727272727272725
-0.04656818181818181
-0.011636363636363625
-0.01745454545454543
-0.02327272727272725
-0.01745454545454543
0.3200227272727272
-1.3324090909090907
0.4014545454545454
0.2443636363636363
0.011659090909090907
-0.046545454545454536
0.05236363636363634
-0.017454545454545438
-0.023272727272727257
-0.03490909090909092
-0.034909090909090904
0.02909090909090907
-0.06402272727272726
-0.023272727272727264
-0.052363636363636334
0.023272727272727278
0.06981818181818181
-0.011636363636363611
0.03490909090909089
-0.01745454545454545
0.017477272727272723
-0.023272727272727268
0.02909090909090908
-0.011659090909090907
-0.04072727272727272
-0.023272727272727257
0.005818181818181818
0.023318181818181814
0.0
0.0349090909090909
0.0
-0.1047272727272727
-0.034909090909090904
0.011659090909090907
-0.04652272727272727
0.1047272727272727
0.7854545454545453
-1.2858409090909086
0.4887272727272726
-0.0814772727272727
-0.06981818181818181
0.1396363636363636
-0.05236363636363639
-0.1047272727272727
0.0
0.04654545454545453
-0.03490909090909089
-0.03490909090909089
-0.19786363636363635
-0.30256818181818174
0.15709090909090906
-0.06981818181818172
0.0349090909090909
0.13963636363636361
-0.11638636363636361
0.11054545454545447
-0.1570909090909091
0.1629090909090908
0.1454545454545454
0.19199999999999995
-0.20945454545454542
0.0
-0.06981818181818172
0.011636363636363639
0.06981818181818183
0.0174545454545455
-0.017454545454545445
0.1745454545454545
-0.040727272727272695
0.10472727272727267
0.669090909090909
-1.2451363636363633
0.2967272727272726
0.13963636363636367
0.023272727272727334
-0.05236363636363639
0.15127272727272734
0.06981818181818189
0.05818181818181822
-0.08727272727272717
-0.13381818181818184
0.20945454545454534
-0.034909090909090945
-0.31418181818181806
0.046545454545454584
0.03490909090909089
0.22690909090909087
-0.034909090909090945
0.10472727272727267
-0.046545454545454445
0.05236363636363639
-0.10472727272727267
0.023272727272727334
-0.03490909090909089
-0.04654545454545467
-0.01745454545454539
-0.05236363636363639
0.15709090909090895
-0.023272727272727334
-0.09890909090909084
-0.029090909090908945
-0.0814545454545455
0.034909090909090945
-0.10472727272727272
0.5003636363636361
-0.5352954545454544
0.30838636363636357
0.15709090909090911
0.011636363636363667
-0.023272727272727223
0.029090909090909056
-0.01745454545454539
-0.029090909090909167
-0.034909090909091
-0.023272727272727334
-0.029090909090909056
-0.06981818181818172
-0.06981818181818178
-0.03490909090909086
-0.011636363636363611
0.034909090909090945
0.029090909090909056
0.005818181818181778
0.05236363636363622
0.023272727272727334
-0.017454545454545445
-0.0174545454545455
-0.005818181818181778
-0.023272727272727278
-0.011636363636363611
0.0
0.05236363636363628
-0.09890909090909089
-0.052363636363636334
-0.0058181818181818334
0.011636363636363611
-0.02327272727272725
0.6865454545454543
-1.1985681818181815
0.38399999999999984
0.14545454545454545
0.011636363636363611
0.023272727272727223
0.0
-0.0058181818181818334
-0.0174545454545455
0.023272727272727278
-0.0058181818181818334
-0.029090909090909056
-0.06981818181818178
-0.09313636363636363
-0.034909090909090904
0.03490909090909092
0.034954545454545446
0.023272727272727257
0.023272727272727264
0.0058181818181818334
0.0
0.0
0.0
0.017454545454545417
0.03490909090909092
0.034909090909090834
-0.08727272727272722
-0.03490909090909086
-0.04072727272727271
-0.0058181818181818196
-0.011636363636363639
0.05236363636363636
0.24436363636363645
-0.26763636363636345
0.27927272727272723
-0.011636363636363611
0.023272727272727306
0.03490909090909089
0.017454545454545445
0.011636363636363667
0.005818181818181778
0.0
-0.03490909090909089
0.0
-0.06981818181818178
-0.07563636363636363
-0.01745454545454545
0.034909090909090904
0.0058181818181818196
0.05818181818181817
0.0
0.03490909090909089
0.011636363636363667
0.0
0.0058181818181818334
0.06981818181818178
-0.06981818181818178
-0.011636363636363667
-0.06981818181818178
-0.011636363636363639
-0.005818181818181778
0.0
0.43054545454545434
-0.6283863636363636
0.3839999999999999
0.1047272727272727
0.02909090909090911
0.0
0.017454545454545445
-0.0174545454545455
0.01745454545454539
0.011636363636363556
0.0
-0.023272727272727278
-0.05818181818181811
-0.12218181818181814
0.0
0.04072727272727275
0.04072727272727272
0.011636363636363667
0.011636363636363611
-0.034909090909090945
0.011636363636363667
-0.034909090909090945
0.0
-0.01745454545454539
-0.05236363636363631
0.0
0.005818181818181778
0.0465454545454545
-0.10472727272727267
0.0
-0.02327272727272725
-0.011636363636363625
0.005818181818181806
0.4712727272727271
-1.1985681818181817
0.3665454545454544
0.23277272727272724
0.02327272727272725
0.023272727272727278
0.0
0.005818181818181778
0.02909090909090911
-0.02909090909090911
-0.0058181818181818334
-0.034909090909090945
-0.052363636363636334
-0.06402272727272725
-0.05236363636363634
0.03490909090909092
0.06399999999999997
0.0058181818181818196
0.017477272727272723
-0.0058181818181818196
0.0
0.017454545454545445
-0.011636363636363634
0.0
-0.029113636363636355
-0.011636363636363632
-0.011636363636363636
0.0465681818181818
0.05236363636363636
-0.04072727272727271
-0.029113636363636355
-0.023272727272727264
0.023272727272727264
-0.0058181818181818196
0.49456818181818163
-1.4313181818181815
0.3839999999999999
0.2559999999999999
0.04072727272727272
-0.0057954545454545455
0.02911363636363636
-0.011636363636363634
0.017454545454545452
0.011636363636363625
-0.005818181818181813
-0.034954545454545446
-0.09309090909090907
-0.06981818181818178
-0.029090909090909
0.005818181818181722
0.05818181818181822
0.023272727272727278
0.017454545454545473
-0.005818181818181806
-0.005818181818181806
-0.02327272727272725
0.0
-0.011636363636363639
-0.011636363636363639
-0.0058181818181818334
0.03490909090909086
0.029090909090909084
-0.13963636363636361
-0.04072727272727267
-0.023272727272727334
-0.023272727272727278
0.023272727272727278
0.6516590909090908
-0.8145454545454546
0.3839999999999998
0.11054545454545445
0.011636363636363639
0.0058181818181818334
0.02327272727272725
0.029090909090909084
0.023272727272727306
0.005818181818181806
-0.0058181818181818334
-0.04654545454545453
-0.06981818181818183
-0.09309090909090911
-0.0174545454545455
0.02909090909090911
0.05818181818181806
0.03490909090909089
0.023272727272727278
0.011636363636363667
0.011636363636363667
-0.011636363636363667
0.011636363636363611
0.011636363636363667
-0.0058181818181818334
0.005818181818181722
0.04072727272727278
0.02327272727272725
-0.12218181818181809
-0.011636363636363667
0.017454545454545445
0.005818181818181722
0.023272727272727278
0.6749545454545451
1.7570681818181817
0.384
0.12800000000000006
0.011636363636363667
5.551115123125783E-17
0.0
0.034909090909090945
0.0
-0.0058181818181818334
-0.0058181818181818334
-0.01745454545454539
-0.08727272727272722
-0.05818181818181811
-0.01745454545454539
0.05818181818181822
0.011636363636363667
0.029090909090909167
0.011636363636363667
0.011636363636363611
-0.011636363636363611
5.551115123125783E-17
-0.011636363636363611
0.05818181818181806
-0.005818181818181778
0.0465454545454545
0.052363636363636445
0.011636363636363611
-0.09309090909090906
-0.03490909090909089
0.011636363636363611
0.029090909090909056
0.0
0.7272954545454544
0.23852272727272708
0.384
0.13963636363636356
-0.011636363636363556
-0.0174545454545455
0.005818181818181778
0.046545454545454557
-0.02327272727272725
0.023272727272727278
-0.011636363636363611
-0.04072727272727272
-0.0465454545454545
-0.07563636363636367
-0.02327272727272711
0.046545454545454445
0.034909090909091
0.0174545454545455
0.011636363636363667
-0.0174545454545455
0.05236363636363628
-0.05818181818181811
0.0
0.005818181818181778
-0.011636363636363556
-0.011636363636363667
0.0
0.052363636363636334
-0.0058181818181818334
-0.03490909090909089
-0.034909090909090945
0.04072727272727278
-0.011636363636363667
0.4596590909090908
-1.3324090909090907
-1.0530909090909089
0.2618181818181817
0.011636363636363611
0.01745454545454539
-0.03490909090909089
0.05818181818181814
-0.011636363636363667
-0.011636363636363667
0.0
-0.04072727272727272
-0.052363636363636334
-0.1105454545454545
-0.05236363636363628
0.05236363636363628
0.017454545454545445
0.05236363636363639
-0.01745454545454539
0.0174545454545455
-0.052363636363636334
-0.03490909090909089
-0.03490909090909089
-0.0058181818181818334
0.04072727272727272
0.0058181818181818334
0.03490909090909089
0.05236363636363639
0.03490909090909092
-0.029090909090909056
-0.052363636363636334
0.011636363636363667
0.0
0.11636363636363628
-0.9891363636363633
0.19200000000000017
0.384
0.023272727272727278
0.0
0.05818181818181817
0.0
0.0
-0.01745454545454543
0.01745454545454543
-0.011636363636363625
-0.052363636363636334
-0.05818181818181811
-0.023272727272727278
-0.01745454545454539
0.0
0.012342227453437896
-0.0411407581781264
-0.26741492815782153
-0.016456303271250583
0.1357645019878171
0.05348298563156434
0.016456303271250583
-0.037026682360313756
-0.012342227453437882
0.024684454906875763
0.08639559217406534
-0.07405336472062746
-0.1193081987165665
-0.05348298563156423
-1.098474313964638
0.9174389073722183
0.03291260654250111
0.08639559217406538
-0.25918677652219624
-0.2345505334413104
-0.22216009416188248
0.008228151635625292
0.2015897150728192
0.0863955921740655
0.020570379089063173
0.13165042617000444
0.04525483399593902
0.053482985631564256
0.03702668236031374
-0.15638309290287025
-0.04525483399593902
0.04115682878678972
-1.2342548865611185
0.24689276089474832
0.06171113726718957
0.004114075817812646
-0.05759706144937696
-0.14812280004991835
-0.2015897150728193
0.10696597126312862
0.148106729441255
1.607060866333325E-5
0.004114075817812635
0.04527090460460236
-0.06993928890281487
0.049401051031078336
0.12342227453437916
-0.07405336472062748
-0.057629202666703606
0.8845905832643707
-0.29211545367336067
0.15635095168554358
0.03702668236031381
0.0
0.09873781962750339
-0.2633329935573355
-0.020586449697726578
0.40324371258029196
-0.13166649677866782
0.008228151635625347
0.12753635035219174
0.11108004708094127
0.24684454906875836
0.3044416105181353
-0.3455823686962616
-0.2015897150728192
0.5060313255909548
-0.5718886798932834
0.18101933598375608
-0.05348298563156417
-0.008228151635625514
0.12342227453437904
-0.22216009416188265
-0.18101933598375597
-0.0370266823603137
0.12342227453437915
-0.0452548339959391
-0.04936890981375153
-0.05759706144937693
-0.04936890981375164
0.16867710853031825
-0.13165042617000444
0.04114075817812646
0.7405336472062748
0.21804601834406978
0.11930819871656662
-0.012342227453438048
0.016456303271250472
0.024684454906875875
-0.16867710853031825
-0.12342227453437912
0.08228151635625286
0.0740533647206274
-0.012342227453437826
-0.032912606542501166
-0.02879853072468841
0.0
-0.14810672944125503
-0.09050966799187798
-0.02468445490687579
-1.3823776866110364
0.8269935218149936
0.049368909813751694
0.020570379089063173
-0.020570379089063284
-0.08228151635625269
-0.21396408374358386
-0.01645630327125054
0.09054180920920471
0.05348298563156431
0.008228151635625264
0.00411407581781259
0.1234222745343792
-0.20981786670844457
-0.04936890981375165
0.028798530724688465
-2.0406458880697222
0.6254038067421744
0.02468445490687582
0.0452548339959391
0.04525483399593899
-0.032912606542501166
-0.2015897150728193
0.012342227453437923
0.1193081987165665
0.008228151635625236
0.008228151635625292
0.10285189544531598
-0.18101933598375614
-0.041140758178126374
-0.02879853072468841
-1.9089793912910547
0.7241416263696777
0.06171113726718963
0.04936890981375175
0.012342227453438048
-0.09873781962750328
-0.2098178667084446
0.028798530724688437
0.0863955921740654
0.032912606542501
-0.008228151635625292
-0.020570379089063173
-0.004114075817812701
0.11108004708094138
-0.14810672944125497
-0.05759706144937693
0.3291260654250111
-1.7814430409388629
0.28801744846421135
0.016456303271250527
0.041140758178126347
-0.008228151635625292
-0.102851895445316
-0.1728393961741208
0.045254833995939034
0.057645273275366934
0.01234222745343791
-0.045254833995939034
-0.012358298062101248
-0.02468445490687584
0.13581271381380708
-0.16461124453849557
-0.016456303271250555
0.444368400149755
-1.316536402917371
0.2015897150728193
0.01648844448857722
0.02879853072468846
-0.0205703790890632
-0.12345441575170582
-0.16867710853031814
0.07816744053844016
0.07816744053844016
0.041140758178126347
-0.03291260654250114
0.016456303271250527
0.028798530724688465
-0.1193081987165665
-0.06993928890281492
0.04936890981375164
-1.834926026570427
0.8187010877447152
0.037026682360313756
0.045254833995939076
0.04525483399593899
-0.10285189544531595
-0.21393194252625714
0.04936890981375186
0.13987857780562973
0.008228151635625236
0.008228151635625292
-0.016456303271250583
0.016456303271250472
0.11930819871656656
-0.13576450198781698
-0.008228151635625292
0.69119687860985
-2.336811135126242
0.13165042617000455
0.016456303271250583
0.032912606542501166
-0.02468445490687582
-0.11519412289875391
-0.1357645019878171
0.10696597126312857
0.012342227453437937
0.0
0.008228151635625292
0.004114075817812535
0.06993928890281498
-0.041140758178126347
-0.0740533647206274
0.04525483399593888
-0.4114397229985907
0.9380092864612817
0.06993928890281492
0.012342227453437826
0.049368909813751694
-0.09462374380969074
-0.14399265362344238
0.06582521308500222
0.1357645019878171
0.053482985631564284
0.004114075817812646
-0.04525483399593888
0.016456303271250583
0.11930819871656645
-0.1357645019878172
-0.004114075817812535
0.34148436348711236
-0.4032115713629654
0.25095862488657095
0.04525483399593899
0.1316504261700045
-0.008228151635625292
-0.0905096679918781
-0.14810672944125491
0.12342227453437904
0.07405336472062746
-0.016456303271250583
0.057597061449376985
0.016456303271250527
0.004114075817812646
0.09462374380969063
-0.04936890981375175
0.016456303271250583
0.4772649360835928
1.0244048786353472
0.06582521308500211
0.049368909813751694
0.061711137267189575
0.00411407581781259
-0.1275363503521918
-0.061711137267189686
0.02036363636363636
-0.4043636363636363
0.21818181818181792
0.14254545454545448
-0.03490909090909089
-0.0029090909090909167
-0.1890909090909091
0.0174886363636364
0.8232727272727268
-0.2792727272727271
-0.6080340909090907
0.3578181818181818
0.07563636363636378
0.14254545454545448
0.14545454545454536
-0.16003409090909082
-0.7854431818181817
0.28805681818181805
0.1483636363636363
-0.4975340909090907
0.3432727272727272
0.02039772727272727
0.023284090909090886
0.18038636363636357
-0.13968181818181813
-1.3265795454545448
0.3811022727272726
0.03490909090909072
-0.6429659090909088
0.3898522727272726
0.03199999999999992
0.32290909090909087
0.19781818181818178
0.43054545454545445
1.1142499999999993
0.09599999999999986
-0.13381818181818184
-0.037818181818181806
0.12509090909090892
-0.01745454545454539
0.08436363636363664
-0.15127272727272711
-1.7193409090909082
0.18036363636363628
0.03490909090909122
-0.5556363636363635
0.2792727272727272
-0.061090909090909196
-0.043636363636363806
-0.36654545454545445
0.017420454545454545
0.7884090909090904
0.046545454545454445
-0.4014772727272725
0.21534090909090903
0.04945454545454542
0.10763636363636359
-0.3054545454545453
-0.1251363636363636
0.6109545454545452
0.09309090909090911
-0.4101818181818181
0.20363636363636356
0.03490909090909089
0.04945454545454542
-0.020363636363636417
-0.41892045454545435
0.10763636363636364
-0.0029090909090910833
-0.21527272727272717
0.13090909090909086
-0.043636363636363584
0.10472727272727256
-0.2734545454545454
-0.7884204545454541
0.26184090909090907
0.011636363636363556
-0.4509659090909089
0.17748863636363632
-0.04072727272727271
-0.06698863636363633
-0.02036363636363632
0.28512499999999985
0.7243409090909089
0.06113636363636361
-0.18915909090909086
-0.08727272727272728
0.11927272727272725
-0.06981818181818183
0.11636363636363639
-0.061090909090909085
-0.5556704545454542
0.11054545454545445
-0.02909090909090911
-0.3083636363636365
0.19781818181818167
-0.04072727272727272
0.14254545454545442
-0.22399999999999998
-0.174556818181818
0.1861818181818179
0.02327272727272711
-0.4741818181818179
0.1949090909090907
-0.0058181818181818334
0.05818181818181789
-0.24436363636363612
1.003681818181818
0.945454545454545
0.13672727272727264
-0.40727272727272695
0.20072727272727264
0.029090909090908945
-0.03781818181818186
0.0
0.2443749999999998
0.07852272727272724
0.12509090909090903
-0.16872727272727273
-0.040727272727272945
0.1105454545454545
-0.023272727272727334
0.1687272727272725
-0.12218181818181817
-1.5738409090909085
0.13963636363636361
0.046545454545454445
-0.4247272727272726
-0.3250119896071985
0.6335676759431464
-0.01439926536234426
-0.2859041634249835
0.5204305909532988
-0.8022688903864594
0.15839191898578664
0.09259081181377937
0.808480180634837
-0.4443925060627499
0.5616758080877368
0.0987297843231717
-0.3086119334662695
0.14194365101886752
0.03088770985092148
0.09462374380969074
0.08639559217406512
1.2712976395300954
-0.9194959452811243
0.10490893335422213
-0.23244528370641393
0.8290344891152366
-0.7343625334795558
0.39700831641891976
-0.06788225099390854
-0.3476474419094996
-0.3455984393049248
0.5287390956322406
-0.10285189544531598
0.030855568633594788
-0.2118749046173508
0.47723279486626596
-0.31678383797157306
0.7879017662414416
-0.676765472030179
0.08639559217406534
-0.20570379089063195
0.21601308634815844
-0.429961099483079
0.2819186524764774
0.13167453208299942
-0.7919676302332646
0.008212081026961957
0.3599816340586056
0.020570379089063118
-0.510121295495772
0.12342227453437898
0.20158971507281964
0.01439926536234426
0.40937464978535243
0.23038824579750783
-0.15222080525906745
0.016456303271250805
0.499892353081562
0.8968685282831551
-0.5286587425889243
0.034969644451407156
-0.13164239086567286
0.44841819353291434
-0.8639559217406535
0.1275363503521918
-0.2591867765221961
0.931822102125899
-0.580084690311582
-0.8232727272727267
-0.13089204545454525
-0.2487102272727275
0.44219886363636335
0.7404147727272724
0.5455454545454542
0.9789886363636358
1.0691704545454537
-0.043670454545454485
0.3665454545454545
-0.48294318181818174
-0.5265454545454542
-0.8873124999999995
-0.6385909090909087
-0.4989545454545452
-0.4494545454545452
-0.05385795454545472
-0.22254545454545438
-0.6356761363636358
-0.7098636363636359
-0.702613636363636
-1.0343068181818176
-0.8727102272727268
-0.9279999999999994
-0.0028920454545455776
-0.7330909090909083
0.557113636363636
-0.07418181818181813
0.10909659090909063
-0.16292045454545412
0.1279999999999999
0.6152613636363631
-2.0338181818181806
-2.0948920454545443
-2.4163465909090895
-1.3821647727272717
-0.5717897727272726
-0.1383068181818181
0.7519090909090904
1.0835568181818174
3.0574204545454524
3.7323636363636337
3.709056818181816
3.3687272727272703
1.8501420454545443
1.2115681818181812
1.0254090909090903
1.775999999999999
1.8661420454545443
2.4101818181818166
1.3890511363636355
0.6602613636363632
-0.49914772727272705
-0.9238749999999994
-2.3334374999999983
-2.3829090909090893
-2.6476193181818166
-3.5727272727272705
-3.155249999999998
-3.4781818181818163
-2.8905397727272706
-2.816352272727271
-2.4963636363636352
-2.518170454545453
