        D_1                  D_2                  D_3                  D_4                  D_5                  D_6                  S_6   
 0.04513256634002591  0.12981059130400163 -0.03138825988494892 -0.03510987101745558 -0.06857256988977445  0.08177219821581329 -0.22641765506699096
 0.00456676311006318  0.07455954831919076  0.01003266645197305  0.02218853864096145 -0.06157592810841228  0.08115077952722562 -0.22405836794029940
 0.01419642807215595 -0.02843988291256840  0.05217529791904352  0.07634011937700694 -0.05383644595783233  0.07997824975488750 -0.22191376625203482
-0.02380980836512276 -0.04556772095849796  0.04749152588896702  0.09315890577295848 -0.04343459952200537  0.07642008903420083 -0.22066739184985623
 0.01801518666429066 -0.04113940030701512  0.02781797438038141  0.09400247543209268 -0.03193840412394964  0.07162437444412945 -0.21988220648934337
-0.01365115947641260 -0.02074693170797008 -0.00027189578443950  0.08978790131323089 -0.01863222202170592  0.06643695943947496 -0.21933165176158761
 0.00172917398236345  0.00690376413075168 -0.02997396284702591  0.07973469380820901 -0.00478379716537597  0.06064280911618682 -0.21902568102451175
 0.00701423614514568  0.01388875785310606 -0.02778398666170303  0.07242166509219135  0.00587083667338800  0.05423696956802749 -0.21878447866955977
-0.00196603181113036  0.01430321996642832 -0.01534668293773469  0.06482518679910874  0.01619363050647410  0.04751747379591047 -0.21866279631847680
-0.00207915307532779  0.00812531659697440  0.00075567923102611  0.05295612737797455  0.02568184786613486  0.04016371572314905 -0.21873953371936544
-0.00066245791163210 -0.00016459136772447  0.01797953879652753  0.04029005454333311  0.03568595486534021  0.03266976457083411 -0.21893426349612674
 0.00099084335308062 -0.00486579224035702  0.01790616935037145  0.03299732055523109  0.05245585451863578  0.02648934939673365 -0.21910974493313842
 0.00406259159873146 -0.00959142459896198  0.01164642056445504  0.02738199401404145  0.07196076620055361  0.02074573303755134 -0.21934208081580925
-0.00813942060089276  0.00200269307836179  0.00585411249764714  0.02265435972785800  0.08938259326880671  0.01473692331954288 -0.21962726129075127
 0.01034097129178250  0.01870344491051510 -0.00100154493015765  0.01832523209939195  0.10668607883489722  0.00870268751120875 -0.21998386971705990
-0.01013403426302058  0.00285864802328307 -0.00612410780594846  0.01112367102540765  0.12690507047675800  0.00274419171417641 -0.22050943917008356
 0.00107418463597888 -0.02103735638959391 -0.00951596222376984  0.00354195283629875  0.14573305460673988 -0.00345317959144647 -0.22111569387364907
 0.00495484450191765 -0.01224243230823890 -0.01636356774168605 -0.00433698383754182  0.16607590158187000 -0.00941653670571236 -0.22180722549004908
 0.00295198828546362  0.00433042373708731 -0.02198139094009547 -0.01153487942541167  0.18300963307809370 -0.01573982679848011 -0.22253594793610254
-0.00751693643263597  0.00807555696821258 -0.01446325366012124 -0.01411162708241139  0.18205128929438144 -0.02403707004093524 -0.22313395904592510
-0.00096301534948662  0.00939425844542792 -0.00292639086752781 -0.01453945401756586  0.17275611837122168 -0.03315634315901806 -0.22370117342246718
 0.00647793138319482  0.00035602701194442  0.01134660294535100 -0.01437083230464639  0.15864648289782850 -0.04292717590271471 -0.22430203603036142
-0.00284975344977813 -0.01177846747841162  0.02548597630402143 -0.01333118166616145  0.14070443153310600 -0.05299329498585019 -0.22491971025632027
-0.00033959170228385 -0.00380800152966912  0.02654306049370016 -0.01189607912400085  0.12573792621287000 -0.06198977359508572 -0.22556554075490218
 0.00382896436860777  0.00857697888184556  0.02187151870324044 -0.01023159385233373  0.11004963307848792 -0.07080217450961517 -0.22624832666957526
-0.00472509353305055  0.00948359740734130  0.01893044371560855 -0.00779339335805593  0.09261005580058264 -0.07942957954905526 -0.22694003048268960
-0.00756644922969096  0.00795733533080338  0.01423905865798457 -0.00530253473189405  0.07365730516121628 -0.08808614912224410 -0.22767156606546818
 0.01345397766408413 -0.00330118200278019  0.00372396274015900 -0.00467937874530256  0.04992640707723724 -0.09827224298759461 -0.22853354374507762
 0.00621905097119391 -0.01689488245257912 -0.00727257926808142 -0.00479904532156006  0.02371495330558120 -0.10900078842131838 -0.22946670881250760
-0.01908072287234194 -0.00990478650487529 -0.02400243748610971 -0.00475683721175591 -0.00036078264314037 -0.11878770984626660 -0.23042472343476988
 0.00704362498300135  0.00244809174277788 -0.03930010827694456 -0.00487136631525412 -0.02455489594140216 -0.12830160272740065 -0.23141874346401806
 0.00311321058640899  0.00615522629938881 -0.03276957679910124 -0.00538139631969826 -0.05370691000736679 -0.13882432214818627 -0.23245023161067288
-0.00726377595046111  0.00778872301936053 -0.01914698723217765 -0.00586734365948843 -0.08202852344238906 -0.14875620627994807 -0.23349888645411593
 0.00939620895987236  0.00293762918708537 -0.00036157253209330 -0.00660172259116743 -0.11230706797429970 -0.15888543243946646 -0.23458704260914600
-0.00067871581833001 -0.00413692438784448  0.01903491625648572 -0.00714503817249168 -0.13903999624537117 -0.16767265547837476 -0.23567958615329190
-0.00624314618046961 -0.00244901090699620  0.01993999824904485 -0.00585953728921386 -0.14534783144842306 -0.17031241631267946 -0.23668305611047452
 0.00204621946548866  0.00166894497128202  0.01431934028428594 -0.00369564249537640 -0.14213876728042693 -0.16986112862908193 -0.23765696631537210
-0.00007504486627603  0.00047851580177544  0.00734950690632261 -0.00208060690683244 -0.13433143032882297 -0.16803966626791310 -0.23861927433744398
 0.00593105826189004 -0.00197612569990987 -0.00083551936043125 -0.00028635106052825 -0.12226446474768957 -0.16467349915190554 -0.23957709824061450
-0.00941331668172047 -0.00073898522010021 -0.00340057733788056  0.00308248207581992 -0.11187527824002237 -0.16075823474397510 -0.24057808985130696
 0.00534998882126267  0.00139407127320182 -0.00376700921682160  0.00649770626275070 -0.10050491569162678 -0.15615101819745240 -0.24159182325050893
-0.00322481033868695  0.00022526487738042 -0.00532427241861053  0.01053889397095953 -0.08650316404902998 -0.15023564888653582 -0.24261226315467282
 0.00968913487614097 -0.00120927720332249 -0.00623865775834060  0.01399331608654344 -0.07109741737924549 -0.14372865130339585 -0.24363544731759060
-0.01210706405745481 -0.00151588003669399 -0.00376673513653427  0.01250731899111481 -0.05453195401159380 -0.13818775756569485 -0.24462492818235884
 0.00213653590406853 -0.00273674129731791 -0.00027557625722569  0.00874653227353852 -0.03687795877333264 -0.13270764301058594 -0.24560314883836254
 0.00683579100958026  0.00510132062558772  0.00430816840988174  0.00542023510397899 -0.02054279311975968 -0.12692698913717430 -0.24660473289131982
-0.01466227485685637  0.01617462957581125  0.00880034432093072  0.00147071547826710 -0.00407391013418236 -0.12087019951933767 -0.24761230486387034
 0.01582327640952058  0.00014871714047292  0.00884687285498753 -0.00449305297124436  0.01644831708369902 -0.11404313145149182 -0.24859499906518800
 0.00869140231035121 -0.02323026131919588  0.00705497922405388 -0.01046880628423264  0.03681044651943505 -0.10676750304671419 -0.24959025740295576
-0.02480457731133317 -0.00899963590271824  0.00531874671290497 -0.01766912403933801  0.05850251934186658 -0.09927562056150763 -0.25057230823913970
 0.00368718317607584  0.01454965051102951  0.00308338953300686 -0.02397831104818873  0.07806795767967507 -0.09150941329457841 -0.25158245655628460
 0.00902364201850164  0.00906684522672282  0.00023077810851704 -0.02259483422211256  0.08449809319088317 -0.08352627592662824 -0.25274324839514860
 0.01133495111260270 -0.00241849727000622 -0.00261963173647996 -0.01777682234525379  0.08480095532443666 -0.07539536039717923 -0.25397059468740957
-0.02381745153235676 -0.00880464265505260 -0.00603446133870208 -0.01280494596330295  0.08258436508104516 -0.06683717488568497 -0.25524068870524530
 0.01187301110249448 -0.01502317787432379 -0.00911678820895415 -0.00677288341996805  0.07767968756700627 -0.05814730660299492 -0.25653754256257590
-0.00236136474933135  0.00128919879473341 -0.00906620792675578  0.00055024582202742  0.07299113729665307 -0.05002683882892248 -0.25778517040771665
 0.00009618951140860  0.02349411585134228 -0.00754331281750619  0.00781323633242523  0.06759055077358897 -0.04192234721259895 -0.25902843243797610
 0.00199438250453028  0.01230493580204230 -0.00621290288553603  0.01649865798434560  0.06018333304095472 -0.03399614527731920 -0.26027226116833880
 0.00186413708504305 -0.00757345093681906 -0.00439598715036872  0.02439670580244401  0.05203722755055847 -0.02594334992026329 -0.26152128242992580
-0.00265866264301050 -0.00854767666472591 -0.00118072348521549  0.02518542836720473  0.04528872261440886 -0.01638695889184496 -0.26283612929615640
-0.00967175261162795 -0.00487536273220135  0.00222807347458820  0.02287116715462788  0.03871518451593652 -0.00622786715555341 -0.26417544264509757
 0.01925346893365234 -0.00201266432627896  0.00643337232209136  0.01968243034933705  0.03244790208408716  0.00343969146506649 -0.26547120082728476
-0.02113128982796991  0.00190586531575250  0.01029467167899607  0.01538794299291034  0.02610882782882517  0.01305233534872207 -0.26675435333655470
 0.01893548132908982  0.00031472132880588  0.00996432348283666  0.01135863795041985  0.01796610577382441  0.02332103915425858 -0.26808730901854900
-0.00547422775442555 -0.00421066524261160  0.00779280280597879  0.00735031787359550  0.00955065898160591  0.03324766587532683 -0.26939255253877786
-0.00806638235185025  0.00509113815837857  0.00598445415449453  0.00239926682451268  0.00075133026772351  0.04341153313112239 -0.27070734018368820
 0.02055052070209371  0.01885437953722625  0.00364104937206521 -0.00245324264376977 -0.00761067488558604  0.05274836353267715 -0.27195739561400617
-0.02429150494673247  0.00057413341639523  0.00015463744345388 -0.00506706947547393 -0.01254623729104083  0.05804435299433082 -0.27291331214023830
-0.00304757809510274 -0.02648207904072468 -0.00309836075306946 -0.00682955288183431 -0.01585736941536306  0.06135417153198894 -0.27372123134519954
 0.02297342234554551 -0.00979590811183887 -0.00862328882838977 -0.00767703628313860 -0.01889548300046912  0.06370209608381977 -0.27445680220482630
-0.00973176289444226  0.01829171364583398 -0.01355286350733283 -0.00811733752323240 -0.02125104062591088  0.06506862456668432 -0.27511633366090393
-0.00103216131243309  0.00932105206766488 -0.01033912373799567 -0.01016707670609353 -0.02280531962310384  0.06637329754672872 -0.27575966823407333
 0.00261677538602562 -0.00848853922825517 -0.00477156905258443 -0.01226145678870855 -0.02405798143756520  0.06728598696895143 -0.27636821584716514
-0.00395171014655650 -0.00732323750417302  0.00357683819473892 -0.01441565222973423 -0.02446607410535494  0.06745007170568985 -0.27691523591391790
-0.00325651117517906 -0.00198425084585002  0.01188601177939031 -0.01602737426138155 -0.02479700449206720  0.06719749927565467 -0.27742737027987890
 0.00664749977656421  0.00300274419652936  0.01020456236392849 -0.01421988022597576 -0.02745724180000355  0.06699974451405445 -0.27795042882440860
 0.00741926105779195  0.00803136598583148  0.00529881940934366 -0.01071496042578261 -0.03095101873610499  0.06660206615942507 -0.27845853344982820
-0.01671731263898329  0.00490154503682646 -0.00132765485222788 -0.00779315588701483 -0.03392866144252065  0.06613567165016448 -0.27895243186557970
 0.00819045860272242 -0.00077965854020813 -0.00824442551562312 -0.00438941885165167 -0.03685903863460589  0.06546284973158738 -0.27942576679157490
-0.00212735745544038 -0.00267972597558723 -0.00835115834244536  0.00142403939735696 -0.04016113639771571  0.06405934588022463 -0.27984600710575225
 0.00647112782209077 -0.00303695468005248 -0.00606011827977573  0.00741087232484481 -0.04301747353480785  0.06242953019422095 -0.28024198384589394
-0.00754479042737895 -0.00507427399168815 -0.00316972839434622  0.01443288768009389 -0.04618744156463505  0.06047322703107327 -0.28061188033250895
 0.00050826279149740 -0.00638500887455578  0.00014971328027754  0.02065701766837690 -0.04853306607894177  0.05852936111730753 -0.28097127990336810
 0.00574240596764787 -0.00077542746955186  0.00146837178906493  0.01958564435192199 -0.04677480716421431  0.05771995192577772 -0.28137513940005420
-0.01013576245194810  0.00429370278847290  0.00219647026631549  0.01513956521558423 -0.04309283559088974  0.05734406595621603 -0.28179020618314890
 0.01277379485738334  0.01594885871594036  0.00222696056915279  0.01140798829369339 -0.03832631479543773  0.05702826667355017 -0.28219555431366430
-0.01178125843896926  0.02861852217957887  0.00214009396055940  0.00672257859671158 -0.03268607990950342  0.05680908838847664 -0.28259594477621440
 0.00689919447906773  0.00081631392566605  0.00334373665103654 -0.00122849071020915 -0.02768375176391667  0.05643014907501342 -0.28298615165602920
 0.00953894914597191 -0.03386182640731254  0.00426427935553962 -0.00931985389593419 -0.02253970862256286  0.05596423388245873 -0.28336407345755227
-0.02064439008110257 -0.03690728013014889  0.00778149185047226 -0.01930371398074787 -0.01697514603605820  0.05556027326445818 -0.28373823488626810
 0.01096194218645850 -0.03281434807376078  0.01074777860928122 -0.02806406251527312 -0.01112633409907039  0.05507598280568933 -0.28409895891271770
-0.00257068766140032  0.01235150022206995  0.00570399061619624 -0.02525797704721858 -0.00444459812564721  0.05422775255559045 -0.28441898055896114
 0.00514395457224538  0.06720328455340004 -0.00079284057842908 -0.01730956304033257  0.00268416048259805  0.05319562476870617 -0.28471562075753176
-0.00241873050391783  0.03953363392772823 -0.01297528636861862 -0.00978657609560386  0.00914179916611887  0.05200761607063142 -0.28500245619568100
-0.02420038584838836 -0.01083439696750837 -0.02439636311286629 -0.00084654034696488  0.01553344097402660  0.05070207650438670 -0.28527583120204353
 0.03117793927220729 -0.02198811011884412 -0.01690605029342775  0.01097116811791104  0.02330794351265585  0.04947180680724930 -0.28553469729708510
 0.03562821348564064 -0.02143245332757525 -0.00460844728833774  0.02254851596371778  0.03088057221782807  0.04817758713487941 -0.28578498818549275
-0.07704162982781160 -0.01922486662731210  0.01560877192897744  0.03668963910176831  0.03877618902101874  0.04680326919547486 -0.28602037279143067
 0.02243846925439620 -0.01631190686358240  0.03519615502871022  0.04910149911267640  0.04574032184323300  0.04531298497047900 -0.28625052334517830
 0.02002792482490618  0.00854921311118079  0.02656245994572272  0.04716928571379621  0.04756379354969349  0.04349381706835257 -0.28650249421290447
-0.01791326976689575  0.03950898652017110  0.00973833059957541  0.03907042981259273  0.04684112786897371  0.04146847765784038 -0.28675908269155026
 0.01156939437561928  0.01388688376381907 -0.01536206591800195  0.02898199353515089  0.04554650659469654  0.03943458952806406 -0.28701230187863880
 0.02448472655590622 -0.02679722653518961 -0.04038960029437698  0.01678586090632967  0.04311687029569634  0.03728835353027530 -0.28726198445795670
-0.04629851009263625 -0.01398611184496698 -0.03530971253318899  0.00628108255467557  0.03939699127737906  0.03482474764890296 -0.28749948700950717
 0.00125232081622912  0.01096873393391275 -0.02099910330507302 -0.00369492516065215  0.03516397624329650  0.03226462537979317 -0.28772862790685020
 0.03031970293824018  0.01491223076852287  0.00138082915053958 -0.01565718977764951  0.02960605993398613  0.02952640837088309 -0.28795204138388336
-0.00714401909668765  0.01472194662387093  0.02423938037000462 -0.02713694372511340  0.02393175308070243  0.02678270615515434 -0.28816782340732440
-0.00840579659006290 -0.00354866089368544  0.02063168764691736 -0.03440768889592405  0.02176833800920643  0.02465486558083726 -0.28837474485666600
-0.00131550561390946 -0.02583748994361058  0.00994345823373667 -0.04043562347826259  0.02086580647104535  0.02276158471411312 -0.28857323038245886
 0.00519236578545425 -0.01715728214123922 -0.01253817015499308 -0.04118906147457264  0.01950759865506417  0.02071893584226672 -0.28876138651124145
 0.00475406814626239 -0.00361662700126121 -0.03417747019652227 -0.04076609871262411  0.01820267140741472  0.01867988447317698 -0.28894042811561620
-0.00991338401937463  0.01354115339769154 -0.02296825200662355 -0.05120948132058992  0.01698005292973583  0.01681961370829514 -0.28911370268830630
 0.00031082353596895  0.03654188537162458 -0.00627097467780488 -0.06229698207420838  0.01517625336414257  0.01486140358240479 -0.28927740910132604
 0.00569633460877360 -0.01496119987191073  0.04408310677837025 -0.07504581474170098  0.01400831385355584  0.01306199140505917 -0.28943373203143350
 0.00188027900039976 -0.07964616559950721  0.09143506011588295 -0.08459747682357872  0.01195947649631080  0.01104753308025595 -0.28957870626915555
-0.00664692418179471 -0.02577096474529970  0.05219178205131939 -0.06887425953978446  0.00518866307554701  0.00774909123538037 -0.28970138789470545
-0.00336344468760500  0.04090542853412484  0.00176675017567844 -0.04084030376182114 -0.00351709561829303  0.00390311100250703 -0.28980944564384914
 0.00326392596392768  0.12687638822806369 -0.13196212750308140 -0.01951394597922776 -0.01432493585231042 -0.00030080991134854 -0.28990249494521325
 0.02881881801325389  0.21748381855327897 -0.25614093219934520  0.00461484629340994 -0.02594831123909200 -0.00470837478998814 -0.28998386463069350
-0.05492432243930399 -0.00312948514832698 -0.12431465968952596  0.04954978525478185 -0.03400116669738212 -0.00861500162635529 -0.29006514965313950
 0.07572441681215740 -0.28350317393855960  0.06109917043121058  0.09523186274499283 -0.04164929368881440 -0.01244722306887763 -0.29013775929147340
-0.06549702754780694 -0.25781017246246730  0.37746903405595030  0.14959007573159840 -0.04861594799246326 -0.01625109368153223 -0.29020286810253810
-0.06501291335765255 -0.16075918544671320  0.67519765242873640  0.19628057890376174 -0.05609885068812720 -0.02007761731814271 -0.29025666452095680
 0.14291754627637650  0.10560379216355481  0.48264672635874020  0.17755080921844776 -0.07027602592191567 -0.02452501675535658 -0.29028183133885680
-0.00343895367052853  0.41477257707251636  0.14570705725187044  0.12889695460229741 -0.08717649905771686 -0.02919835190101525 -0.29028978429642540
-0.08492350357998066  0.21511887331339030 -0.31329843356192427  0.08478999738250295 -0.10166806607019511 -0.03340877376869106 -0.29029209371430065
-0.03269876145514097 -0.12437124430090472 -0.76976644119920050  0.03233932600290858 -0.11595849697607528 -0.03748668249151232 -0.29028469957940260
 0.10863434481491770 -0.14214456583115934 -0.72484903018778260 -0.04392907991822650 -0.13374140017891110 -0.04211596278034836 -0.29026330591780760
-0.05049204076323922 -0.07551710135435655 -0.50048699398301380 -0.12018818529674832 -0.15009193398694937 -0.04648735073207862 -0.29023639388286160
 0.00558844590184098 -0.04306808983328621 -0.23053964850443337 -0.21190565523822938 -0.16806376252932610 -0.05095219779885066 -0.29019509199695130
 0.01219751725555115 -0.00827195183944291  0.07126675735862029 -0.29269477875921590 -0.18233418872466600 -0.05478392389100949 -0.29015243139902240
-0.02113716883779292  0.02001574704863841  0.19763786621344670 -0.27893257183740955 -0.17692561837209790 -0.05565178648322923 -0.29014246773078756
-0.02435853123392543  0.03969709398634871  0.24970379364554812 -0.22306236251758266 -0.16231614046150590 -0.05502265878517785 -0.29014119463294460
 0.05620913954987562  0.03938377960440366  0.33430175452066824 -0.16412712131500065 -0.14291980781581890 -0.05383408157861534 -0.29014966296468925
-0.02340511903233214  0.03509761578948801  0.39041921613108466 -0.09196842690220310 -0.11938918425583415 -0.05191457430940727 -0.29015752741989880
-0.00154561486050607 -0.01455748374808331  0.32047523287455130 -0.00625561912201729 -0.09814525796338028 -0.04952487353632819 -0.29012838364339980
-0.00243564266913670 -0.07885781726032506  0.20600868316985557  0.07876839533109511 -0.07610219825810574 -0.04679253382076676 -0.29008888649184550
 0.00409262094604031 -0.02100090731968189  0.04697892237476881  0.18056177743003912 -0.05181670351630725 -0.04337000310301287 -0.29003670681116880
-0.01100048075518946  0.07062201691208740 -0.11701949060329610  0.27364591113445760 -0.02622339225683932 -0.03972421628656581 -0.28998234814406443
 0.01020851545516552  0.02677859523034137 -0.14935936112996578  0.28635284642136950  0.00176925591281000 -0.03709021612026924 -0.28997763576886750
 0.02771828440355529 -0.05023445415639921 -0.13428249188821678  0.26405372897085480  0.03123658479852776 -0.03472935859708139 -0.28998929353066040
-0.05090736655141288 -0.03497682934173741 -0.10272119397118189  0.23107749551002685  0.05850574615774388 -0.03213692026005427 -0.28997693154281020
 0.02326864828079075  0.00314346148739078 -0.05951548346879769  0.18541873073239604  0.08560143546661747 -0.02945938715401760 -0.28995740534380054
 0.00340927416004337  0.01549994448711405 -0.05710910062606448  0.14407017586997090  0.11758983472496978 -0.02663947026038953 -0.28995665835502730
-0.02308522804014757  0.01928338496643937 -0.06231110408151171  0.10267175490319660  0.14889987257435490 -0.02356553829088194 -0.28993814203079490
 0.03545253695253636  0.02447486361702020 -0.07537670325689719  0.05133853188909428  0.18146530222687546 -0.02056252726628904 -0.28992800416168530
-0.01219374444374109  0.03120825062606286 -0.08573049370490142  0.00017141705620460  0.21074445336591593 -0.01727156103218476 -0.28988332186671450
-0.00408762783698613 -0.01071978836143708 -0.04790203200395392 -0.03140200118193016  0.22195964101219035 -0.01275978970852393 -0.28967940191873600
-0.01703854146484168 -0.06678669903430200  0.00274832712225389 -0.05565901886459254  0.22434597302261172 -0.00771020612556732 -0.28939983465491550
 0.02939877522635893 -0.02422659403691854  0.06423435758555136 -0.07178956941313980  0.22377756022490305 -0.00218866029631696 -0.28906986928979950
-0.02228078972084577  0.04939790014746882  0.12312873068899138 -0.08428405901493340  0.21913800738989672  0.00355797231771769 -0.28870276180768240
 0.00523656340053386  0.01522893161596284  0.12310566210342272 -0.11086258753359873  0.21206587654516465  0.00864030229517964 -0.28836974842606180
 0.05916040081788265 -0.05358643442077262  0.09798455577556016 -0.13724863017792590  0.20330179616388880  0.01364401805697870 -0.28802870621504010
-0.09172435536516943  0.01412965259475197  0.07665781249717935 -0.16494478566181653  0.19058899276128635  0.01855518355246936 -0.28767150037817430
 0.00401089110997580  0.11688785233512664  0.04818700297414565 -0.18693554327744390  0.17684519268645352  0.02352764047661234 -0.28729603630435740
 0.06121179643478140  0.02020161419348900  0.00638744773743435 -0.17494999096717642  0.16981171940075498  0.02959824456173701 -0.28685183136049890
-0.03122761393523427 -0.12169730516723302 -0.03364385337684438 -0.14687847482220492  0.16477447668035045  0.03608921604101296 -0.28637144541934034
 0.00837645570579588 -0.09183745059651692 -0.09694490167546692 -0.11830051031393203  0.15861585349428944  0.04196473156773901 -0.28591917818142504
-0.00675951152171698 -0.01860165354135767 -0.15380032898049940 -0.08433945172988211  0.15212998055289337  0.04769706295230835 -0.28546209773126857
 0.00219932271523320  0.03976665841076219 -0.12440084138196410 -0.04101478300486195  0.14467331915306010  0.05420597137387071 -0.28492964726558384
-0.00725157910353218  0.09103425728175200 -0.06809820227698670  0.00278559194637858  0.13570489719464285  0.06036278989453134 -0.28440175493618540
 0.01092263385698835  0.06996999702261561  0.01302243680580939  0.05418667191505054  0.12723499924431295  0.06669069170300351 -0.28384543054714895
-0.00305743806246535  0.02821612595493713  0.09552749050856571  0.10147118062371854  0.11703362943281280  0.07213861205352913 -0.28332960051044176
-0.00116841628876082 -0.03158241073107343  0.09100222747023295  0.11004177481989802  0.09960077614690578  0.07336803827322833 -0.28307998968980460
-0.00453079569571035 -0.09297760573052877  0.05747062533700652  0.10166762998735632  0.07897861597017736  0.07248190643631074 -0.28295437630400980
 0.01086009304997915 -0.05917156752787964  0.01151294650522825  0.08905536492069444  0.05502582268564489  0.07080044710480456 -0.28285610673787370
-0.02212804043843934  0.00068443647495600 -0.03845211818919213  0.07043751171511942  0.02957743424980891  0.06809534750868536 -0.28280557132031947
 0.02642862860704287  0.03188685603528148 -0.04081811110687625  0.05197047780753272  0.00885245351964680  0.06478537989224624 -0.28278768475423510
-0.00303246592806444  0.05539885017026784 -0.02701393889127883  0.03337866375902987 -0.01155355531018867  0.06101128691109660 -0.28277984071019047
-0.01245157547304925  0.02751851674966848 -0.01112523387400883  0.00942546577221874 -0.03124283543021489  0.05628494377949510 -0.28281828152344640
-0.00747881094150916 -0.01683119392307705  0.00739315494154026 -0.01388228833832822 -0.05182618556596423  0.05124896449416214 -0.28285064066615645
 0.01811930796183616 -0.01718287438545747  0.01291493000160331 -0.02268951837767650 -0.08186454169248249  0.04757066965952353 -0.28273197316665590
 0.00991863743582842 -0.00445403945170368  0.01357788079846364 -0.02572418670499024 -0.11579643555624101  0.04425438750874253 -0.28254924402937726
-0.02299862046310752 -0.00990314429006414  0.01598897645696408 -0.02558122701922784 -0.14637625935489340  0.04064425614391048 -0.28236498147283560
-0.01903312166867289 -0.01830774556724604  0.01702750065937323 -0.02326322736280776 -0.17668554710628260  0.03692200905111119 -0.28215986800468850
 0.04342006332369910 -0.00078476633939735  0.01340196712248484 -0.02570728938791702 -0.21195431499316275  0.03296939333686621 -0.28193605306176683
-0.00278777677246587  0.02078558119159769  0.00817243791814497 -0.02837463231970761 -0.24517186848792735  0.02867934757311062 -0.28171208910194906
-0.02523849840414017  0.02222572778808352  0.00083001945743147 -0.03050583511944527 -0.28056538571074235  0.02447175870842502 -0.28144478671883680
 0.00766502264444762  0.02028393494278639 -0.00661249816388082 -0.03129278464585559 -0.31062443186578276  0.01990030495555107 -0.28118354786650496
 0.00533217354466591 -0.00914978222474817 -0.00786553794801875 -0.02505471261714233 -0.31280321838728150  0.01382460883664440 -0.28105653120335860
-0.00625130641636656 -0.04743768363171607 -0.00696040476592243 -0.01534945440159423 -0.30180217128886530  0.00708833989806362 -0.28096931939282870
 0.00789107292642195 -0.01318150878530442 -0.00482753120988746 -0.00662791296448315 -0.28394825623998450 -0.00025099911016441 -0.28091886461579830
-0.00381317387847227  0.03965963312458084 -0.00218301703562762  0.00302832275877629 -0.26000397699918940 -0.00786635508522944 -0.28086643288400603
 0.00094128598181650  0.01843770742172119 -0.00272906690316954  0.01686974193018083 -0.23864224946536716 -0.01460839676305677 -0.28067802220130017
-0.00289903929516687 -0.01851696608362899 -0.00391451483354805  0.03073517256847284 -0.21576256652068884 -0.02124188217697480 -0.28044520365763287
 0.00844674975772381 -0.02928563347802372 -0.00581319452343088  0.04672978427772431 -0.18931467491466353 -0.02773770757181472 -0.28016132354670450
-0.03378039644856368 -0.03350866596701439 -0.00749434775751094  0.06084378648590984 -0.16066798044714220 -0.03430908386551415 -0.27985631199936495
 0.04265920880639028  0.00375491885653949 -0.00486769877687438  0.06017331627215326 -0.12881231468643190 -0.04234088203842466 -0.27970254843253150
 0.01159452001452856  0.04739152402055875 -0.00077728092899645  0.05281088968356498 -0.09473082198990704 -0.05092904505928598 -0.27958678573962553
-0.04748017439891138  0.05150354716026185  0.00321044936051938  0.04449901294010570 -0.06280486707987311 -0.05870872769392784 -0.27935524028736400
 0.00993954135593329  0.04565021561090764  0.00720552872112569  0.03387826480819539 -0.03061843031967095 -0.06629936326875295 -0.27907375690693750
 0.01657154815082305 -0.01572586230478298  0.00942000003042808  0.02134722396401056  0.00791845246456624 -0.07489904273513077 -0.27885931956913723
 0.00078048936639661 -0.08801458334500714  0.01012924102642224  0.00861472852722247  0.04603514162658918 -0.08303220908131885 -0.27855780811956820
-0.00933075589012520 -0.06256722544736645  0.01271162940951812 -0.00658267550879922  0.08627615376521530 -0.09138791346589827 -0.27825521286179290
-0.00710194218199481 -0.01221837689049741  0.01439809706321354 -0.02092351648158822  0.12290692513639018 -0.09858672685006892 -0.27779245979468165
 0.01473541213153672  0.03171157299647747  0.00823209013758058 -0.02498468191825855  0.13774326258931250 -0.10025106836396569 -0.27668658757191020
 0.00795407355737026  0.07416978026915160 -0.00012021043490378 -0.02451972302240871  0.14231298628019323 -0.09913905239261765 -0.27524885425601564
-0.01790355640663924  0.03529995668096582 -0.01043382793702765 -0.02354612081835063  0.14278122225608275 -0.09697914571559535 -0.27362752805872160
-0.01942178291012831 -0.02669392114093546 -0.02045731776317140 -0.02103011212536630  0.13867697152820044 -0.09347450931878007 -0.27182632826914170
 0.04350109052801929 -0.02553122703999853 -0.02034637269249246 -0.01716534457972928  0.13431284724775835 -0.08918067911257338 -0.26999931435032310
-0.01831685151237537 -0.00841884774071333 -0.01574728612405162 -0.01303831075819584  0.12856475564714606 -0.08427684890982051 -0.26808461060132716
 0.00057097161108260  0.00073764012112271 -0.01347846707971788 -0.00727668168193753  0.11919433235890413 -0.07812407836252877 -0.26603271696627406
-0.01468134433941990  0.00889073163296696 -0.00986005582312323 -0.00183797175746713  0.10852830698399135 -0.07156215699795612 -0.26388650969832644
 0.01799458064681433  0.00363589782868142 -0.00094288401329035 -0.00282272409958112  0.10108574311386644 -0.06676467396397216 -0.26168593951186870
 0.00918120318973011 -0.00351058378892589  0.00744875349371467 -0.00663046678799879  0.09422254965765338 -0.06243391707301420 -0.25941353869054307
-0.03041315361085256 -0.01437540070855037  0.02543764273410345 -0.00927445723254791  0.08741233187612339 -0.05772036936816669 -0.25711159368949305
 0.03859101706205631 -0.02657034378054863  0.04152429741635585 -0.01250533805640973  0.08034247296084938 -0.05285756099649028 -0.25475154460519717
-0.03536492983396936  0.00076090490798885  0.02681794054090221 -0.01896758634168275  0.07063465393303923 -0.04768208847214650 -0.25224389473351040
-0.00516208920201218  0.03618281719155009  0.00482067561750631 -0.02538806516651673  0.06015725816179770 -0.04206388060406993 -0.24968271599761518
 0.03830488027264084  0.02937455606747817 -0.03261725979707074 -0.03340393590815599  0.04915652310405322 -0.03654810436686994 -0.24703965937144360
-0.04040639298390562  0.01324345275210901 -0.06854129534394887 -0.04001574884645599  0.03825895585355931 -0.03055950260504366 -0.24438846882571547
 0.03202223092065002 -0.01454125610216531 -0.05084415259770403 -0.03483203227595534  0.03020066235762809 -0.02263469543537647 -0.24196175686649501
 0.01652533527347950 -0.04680193683160846 -0.01802898905429747 -0.02426160825484150  0.02344800566744296 -0.01385956245981852 -0.23961224433977996
-0.04514196216341847 -0.01479602835418820  0.03197096533263326 -0.01456732973609920  0.01642141077583974 -0.00429636359999843 -0.23727269225421440
-0.02144620289697153  0.03476125366084212  0.08151477288470464 -0.00341373732739985  0.00985683809221555  0.00562373062033106 -0.23494165503315764
 0.05744262871371028  0.01738402496915196  0.06829808806280910  0.01204185269127131  0.00475158190568550  0.01439765966646930 -0.23254283600853617
 0.03118797784285164 -0.01536966791428237  0.03585803701299037  0.02742450277962516 -0.00006479341660306  0.02303016518691673 -0.23011122149099128
-0.08404910001563842 -0.01735554109872783 -0.01170638982830085  0.04553179841624390 -0.00390592226993333  0.03147673834439137 -0.22767358354755463
 0.00947836606944390 -0.01547011786716702 -0.06036459636806274  0.06154292134769964 -0.00786429511014449  0.04002512327624744 -0.22521140134752757
 0.04356550223786134  0.01018303250223229 -0.05391055089990097  0.06019922709458637 -0.01588001556682449  0.05051088989678767 -0.22271308526426006
-0.02293633537997239  0.04646586586796308 -0.03034940123141842  0.05105091192461797 -0.02546179736968423  0.06173569317619031 -0.22018693698725150
 0.00571053740297720 -0.00001963897487145  0.00477947776900042  0.04119154552126960 -0.03401367005192051  0.07190834304219007 -0.21760159470822950
 0.01239229794922466 -0.06976172547982576  0.04130609935261389  0.02877149924277239 -0.04251932454249538  0.08183798419372337 -0.21498183071562968
-0.02455191098709355 -0.01598287236739207  0.03542505645376520  0.01372493912873947 -0.05225395944671973  0.09307946369184922 -0.21239571647278158
-0.00930059194140483  0.06797358614049336  0.01687726593844075 -0.00138299515327270 -0.06123309291659802  0.10370892901581878 -0.20977910108311923
 0.02311459473064592  0.04314690384218149 -0.01124968734140824 -0.01964843239633512 -0.07089560019802418  0.11463626278226935 -0.20714904141895565
 0.04696387763303354 -0.00899925269750990 -0.04001216898778017 -0.03653553032405520 -0.07886927139704306  0.12405067903637892 -0.20446233326268630
-0.08867313055471279 -0.02324045845197725 -0.03294436710819432 -0.03916934440755056 -0.07813266483156293  0.12622216157712624 -0.20156219622280797
 0.02750145185358354 -0.02717975990696798 -0.01548252517223681 -0.03564845304352275 -0.07327358398904885  0.12476593218486991 -0.19854706192637470
 0.01745770815053961 -0.02128471694875701  0.01145097964878604 -0.03067954707458318 -0.06631367908529094  0.12191437919174980 -0.19550012388210936
 0.00003394368939864 -0.01057078421712668  0.03864324808371390 -0.02359455901752395 -0.05746566832031172  0.11730483710271410 -0.19239601732053940
-0.01151561878675300  0.00792429633084458  0.03082464578874492 -0.01679370456912280 -0.04936385548484114  0.11173053538942995 -0.18921529866795753
 0.01203033481545338  0.02525617992963163  0.01278296521788660 -0.01012211644256237 -0.04081287598153006  0.10536805641918068 -0.18600254395771654
-0.01263688184087711  0.02776312596522743 -0.01381862228275172 -0.00124651782089011 -0.03113908766534956  0.09739520091260104 -0.18272621726761810
 0.00213269065908173  0.02621119609275798 -0.04061982570176306  0.00727818844450153 -0.02084658728701094  0.08887660263583960 -0.17944126484306210
 0.00726523251097596 -0.00787459205249475 -0.03365786895988650  0.00986931154485248 -0.00984544455093787  0.08251655392057926 -0.17631819241274463
-0.01385436146538452 -0.04873721308737922 -0.01587279327918780  0.01035636893031648  0.00170302821784934  0.07670441887061732 -0.17325444818650315
 0.01225647933855266 -0.03321939729596315  0.00666868489904790  0.00842412200253467  0.01246937902395098  0.07042733023271250 -0.17016259820049973
 0.02271581012761998 -0.00198885787771112  0.03017816858085260  0.00567683448725230  0.02322483618889353  0.06394994719129206 -0.16707473869786638
-0.04236874449504213  0.01532480811574816  0.03147994356145624  0.00832926029871122  0.03601915958979036  0.05700041890447889 -0.16401184597481550
-0.00004367998015273  0.02698734770486357  0.02403802207049098  0.01180442102158076  0.04865046539825058  0.04949128742494519 -0.16092786363964245
 0.02874460658630070  0.02531935664021496  0.01957901780267682  0.01527806377208100  0.06179825396366185  0.04207409494780820 -0.15788439371239602
-0.00362015077086571  0.01962023425767922  0.01303796307266804  0.01792159709487257  0.07374802180869398  0.03409466745149916 -0.15480233291421547
-0.01449987352172635 -0.00916812513297294  0.00167632642266190  0.01245638226422178  0.07884469147165489  0.02392811762752244 -0.15146451913103612
 0.00995494788678173 -0.04270101321106613 -0.00829161187899477  0.00253549625602445  0.08059149939450955  0.01280098407757762 -0.14802630252451487
-0.00776018777026312 -0.02617095682579779 -0.03022372414279841 -0.00144903462732568  0.08134268863451123  0.00072582078400713 -0.14450960605202198
 0.00816176705493032  0.00383201153947075 -0.05018547630465772 -0.00606151637293380  0.08056474163670557 -0.01175698705835338 -0.14096354049485443
-0.00561902472297365  0.01471026909258762 -0.02905950475360324 -0.02629507523779291  0.07862062934393853 -0.02282815645872213 -0.13757413726309520
-0.00054961952671101  0.02058927016193452  0.00310186932000235 -0.04761837164631537  0.07601056519979685 -0.03372253403030117 -0.13422017947802556
 0.00722003053364105  0.01145084658245951  0.04212082827483786 -0.07375486617112659  0.07181495742977642 -0.04435693274059485 -0.13090386390857098
-0.01556016573180755 -0.00494215836011891  0.07989548524987235 -0.09527212622766612  0.06727150219541303 -0.05511663834597276 -0.12759389877924976
 0.02042238377256046 -0.00389586878254801  0.06863614321267210 -0.07502753939558099  0.06586990937574368 -0.06833277390546433 -0.12408125427690715
-0.01784772214883881  0.00572974563442175  0.03368261762609467 -0.03536368459010986  0.06546883476495450 -0.08248326490722864 -0.12050452637882487
 0.00955673297474829 -0.02306099321213896  0.02524760671750916 -0.00348138063656289  0.06447198247200726 -0.09535318579213950 -0.11706276252299685
 0.01687503603037084 -0.05381049726658974  0.01101254699624175  0.03285490726537759  0.06334885842190438 -0.10792982415133490 -0.11366902729559660
-0.03393712468758892 -0.01402361966288875 -0.06194006855749429  0.09380089351523785  0.06211296878589631 -0.12207819643969635 -0.11016185295311794
 0.01712690140217317  0.02729622586929968 -0.13347542995035838  0.15465779730222415  0.06019657927300516 -0.13546178733669840 -0.10674928655930269
 0.00034843313693814  0.12046942328355753 -0.27104229817715460  0.22775713966710240  0.05859633825572755 -0.14921638747523033 -0.10332164869054088
-0.02216301105404223  0.21229032514972884 -0.39155500251338680  0.29015167708963560  0.05606310605348334 -0.16110858909166384 -0.10008750563329798
 0.02794696128738344  0.02433937671215469 -0.25616166541425110  0.26505556626936816  0.04930150844466911 -0.16411457170188910 -0.09768517559703302
 0.03227508382559573 -0.19024773760769764 -0.04591958269837676  0.20050521286246300  0.04063286067282806 -0.16267633797762177 -0.09570549907691457
-0.07241879491993136 -0.35801311274169345  0.22630187815145966  0.13621908932576565  0.03035846810039642 -0.15945850545186965 -0.09394402246382579
 0.04428464402004440 -0.52263391268075220  0.49420158868851916  0.06010654137200812  0.01920395443877891 -0.15407674073811856 -0.09240407510007259
-0.00445970968827883  0.06137760361475077  0.48628222752005174 -0.03533300201516128  0.00996593942777813 -0.14765757917507438 -0.09090247968349667
-0.10110943820391094  0.81185859522639810  0.36976379443754010 -0.13005517387064710  0.00078154834853320 -0.14028038503881068 -0.08950394089838754
 0.13899764655777402  0.55555802779317640  0.25220830502770540 -0.24210031677565808 -0.00832258416988194 -0.13097136652804490 -0.08827871190436003
 0.09345109601302257  0.04124720705202509  0.10860531572207130 -0.34319682809288300 -0.01785883649672819 -0.12095193762164519 -0.08716001657534489
-0.24597823217710704 -0.28485323537465357 -0.02923570680295019 -0.35003599102630256 -0.03105022584553542 -0.11320273690174801 -0.08605287187135456
 0.08213732135956960 -0.55791753118210940 -0.14753967735230603 -0.31524381124156170 -0.04578848717439295 -0.10595823245759996 -0.08500758195135621
 0.04209671531617724 -0.31207627638152330 -0.32376636217682190 -0.27044394399384730 -0.05910745022466532 -0.09820466580550365 -0.08399801673345357
-0.01259938067484797  0.08591251572398134 -0.47800271837067676 -0.21090938341399770 -0.07231273787534523 -0.09017375580510696 -0.08305053958356613
-0.00277489171954514  0.19238317411168612 -0.40481058229452780 -0.15012713127530560 -0.08776697631359663 -0.08140861828475200 -0.08226797422347155
 0.00789795695444785  0.21879086629440295 -0.25407719396769740 -0.08906420794657595 -0.10242097135415179 -0.07198531098734602 -0.08155013899262487
-0.01637568652504230  0.11019947078395638 -0.05056860946325541 -0.01458154974593449 -0.11797627838958522 -0.06255429516263727 -0.08091605149707787
-0.00008146617156267 -0.04834313912404933  0.16198769153774540  0.05744822414654591 -0.13130622663121880 -0.05254287902852842 -0.08029820472853907
 0.00978247570643835 -0.06640712670399139  0.19688929646159467  0.08941261092791154 -0.13289810979316385 -0.04062224773713197 -0.07947489886128548
 0.00711663716108534 -0.04331251342462623  0.16660614888756210  0.10493206714047998 -0.12891234912604452 -0.02784639929689870 -0.07858359134122854
-0.01901538623284897 -0.02940027945952216  0.12768799592606064  0.11143145714135222 -0.12222724860428547 -0.01409807283187413 -0.07769646593859118
 0.01783066703344260 -0.01273587638070611  0.07333845683447025  0.11131092868925549 -0.11297554104127831  0.00003756304844470 -0.07680619818337613
-0.01172232528760481  0.01083000143945285  0.04599135477700111  0.12248551693551801 -0.10434438939156984  0.01272383230356037 -0.07596399077614134
-0.01565394226205371  0.03461231686440506  0.02748501987857540  0.13338804688256470 -0.09501196513227012  0.02524305907005709 -0.07515353530108614
 0.03254703537943490  0.01913491130972738 -0.00305382346488773  0.14207588886090408 -0.08399350859783990  0.03745278861653163 -0.07434529210369330
-0.01140453171675138 -0.00801028673975644 -0.03123564161465444  0.14652553424221218 -0.07212233927530523  0.04981291506731919 -0.07356564996292327
-0.01107935844717210 -0.01001529846685244 -0.03202858337713301  0.13272117898704272 -0.05999007192238929  0.06489455177708489 -0.07286641855044332
 0.03800645743424544 -0.00484028182419953 -0.02283666126368432  0.10967673007529959 -0.04735659446602525  0.08101901937567735 -0.07221366933118081
-0.05063013932460640 -0.00584897423535019 -0.00793950768018311  0.08722937594104514 -0.03541017816270221  0.09583817499801017 -0.07160275153606796
 0.00316724057065977 -0.00843248002964372  0.00907047095929284  0.06166887036026796 -0.02337095369301936  0.11037695089581571 -0.07102509906321232
 0.02871663218143346  0.00287048767802020  0.00999579741150359  0.02763840472635205 -0.00893660613463479  0.12652178290883215 -0.07044249877135415
 0.01009961813505695  0.01851184885242991  0.00546780838658962 -0.00685083312286169  0.00551675100253497  0.14186389995856924 -0.06988209321222940
-0.03356599806796282  0.00441717058310651  0.00184093554615028 -0.04666278934060755  0.02061038251885124  0.15761411161950050 -0.06934481285899317
 0.00259471155703222 -0.01921866891453112 -0.00264242154897884 -0.08301513140285106  0.03460575047907200  0.17142361958250346 -0.06883885975223074
 0.01899986966617171 -0.00358413899157981 -0.00561207521965810 -0.08922908538616628  0.04169279198776751  0.17595989458812133 -0.06840925664465262
-0.01844571477104209  0.02432192825186264 -0.00715205609739261 -0.08220158203375563  0.04545438744881600  0.17586913888600460 -0.06802810168450862
 0.01091456307280568 -0.00003252621326714 -0.01252197367624324 -0.07142778942725986  0.04832489242908612  0.17385601184761026 -0.06765817803273394
 0.02987825684185868 -0.03918915908491138 -0.01699661956474601 -0.05586614558239564  0.04972649770778611  0.16958133011746837 -0.06731616043506562
-0.05450201848059177 -0.00680653688747741 -0.01000793239499119 -0.04109173465122231  0.04996850300455731  0.16438130556462310 -0.06703258615491246
 0.01589072551597372  0.04443279747200166 -0.00055922012631433 -0.02624914144421539  0.04960672912675627  0.15819374912126140 -0.06677063966546619
 0.01778456156166263  0.01771768982628609  0.01523060400945777 -0.00734989722674536  0.04766943279942763  0.15003752633317724 -0.06654491730326172
-0.02831442980378744 -0.02857932541073701  0.03017880344796888  0.01121146815770502  0.04545666470602539  0.14109785489847734 -0.06632403599564780
 0.03340207095858525 -0.01618412818543730  0.02237357965417000  0.02014611051930743  0.04667511316241144  0.13413288204107146 -0.06600062815009684
-0.01402811509520912  0.00946035839489108  0.00792231218102001  0.02537212250246351  0.04903008900244198  0.12751886170910498 -0.06563962869469912
-0.00461776580253958  0.01241594309128336 -0.01301856996468301  0.02727295973744286  0.05081680681087181  0.12043286615034737 -0.06530224002271970
 0.01045249843838042  0.01167573669978136 -0.03386485456841202  0.02752536702645026  0.05251881657998918  0.11302077472676551 -0.06496433890293671
-0.01103780318358755 -0.00473633251686020 -0.03030071328682915  0.03333506883357195  0.05411572332751042  0.10468207605429457 -0.06460301922808759
-0.01030311733285685 -0.02673890965782731 -0.01877028313312339  0.03919956603216804  0.05500718897777016  0.09568131663550100 -0.06425776152160642
 0.02503570069379381 -0.00747994549917947 -0.00230890285750741  0.04546329433857710  0.05627028621308723  0.08653996163619680 -0.06388439452492340
-0.00730501894284042  0.02387683636022662  0.01504565295076830  0.04975568614616213  0.05654444328307701  0.07689807354306740 -0.06354267334039507
-0.00428834593952374  0.00808514387220757  0.01571616199097295  0.04189497539133197  0.05230317934433041  0.06605201625100425 -0.06339913091025207
-0.00961564709761602 -0.02094506058926587  0.01138928671743628  0.02838309705872298  0.04603458168871526  0.05463442007505968 -0.06333567785296033
 0.01629969725779290 -0.00436785409003829  0.00249491655693278  0.01512664262658519  0.03792618494608813  0.04239903793970267 -0.06333362523695929
-0.00126767929015097  0.02427075079374136 -0.00694240961972856  0.00021817945732029  0.02885140088994886  0.02986348226744568 -0.06335772449846311
-0.01029397508644434  0.00650163102223105 -0.00197181713993176 -0.01811358995641288  0.02205109799893647  0.01850686740526964 -0.06327121424351710
 0.01244953746657580 -0.02322724248250881  0.00610289591140892 -0.03620763576254228  0.01528946683100015  0.00725573763577880 -0.06316275959955962
-0.01164898832869153 -0.00975700715103523  0.02009919376453012 -0.05703923992020845  0.00867797988943137 -0.00370947562833508 -0.06303146262552720
-0.00089173911437883  0.01489853610663060  0.03322891357859194 -0.07575716112803044  0.00148682053655571 -0.01483876567885352 -0.06289960430034176
 0.01029753144647430  0.00729780779434074  0.02279066083368659 -0.07833846975677480 -0.01036009994867942 -0.02845180651336068 -0.06291762385548941
-0.00239973851348456 -0.00858970283126058  0.00550335165553219 -0.07378888580423343 -0.02420365331915754 -0.04303587670213024 -0.06298549448504676
-0.00181410457038640 -0.00286879935527944 -0.01739805697129109 -0.06622018908989992 -0.03658732160083283 -0.05655948585546411 -0.06296104255661893
-0.01018023263108439  0.00850234004110186 -0.04004434339717702 -0.05582367855817344 -0.04897615608592985 -0.06989003268779835 -0.06290589668069883
 0.01549336085105015  0.00212950349086521 -0.03821615893346815 -0.04738638454930871 -0.06382649966092831 -0.08457850956395885 -0.06293331163399590
 0.00027537018291437 -0.00915372435517710 -0.02725694498878942 -0.03878894042418522 -0.07780266803722055 -0.09860429146966378 -0.06289580090761271
-0.01242502897494070 -0.00068290291731533 -0.01538958272981431 -0.02846033037615799 -0.09301905424177533 -0.11301353772968689 -0.06287356303003750
 0.01033323343240745  0.01228064952614193 -0.00166406798412718 -0.01758955637151671 -0.10579916775055051 -0.12579996274108163 -0.06271612811100155
-0.00920465490032984  0.00422351842676358  0.00719241887446898 -0.00683188849202041 -0.10526752061578769 -0.13073587960797362 -0.06196699368484828
 0.01397901970992846 -0.00744182665531617  0.01286031541646569  0.00419783273709878 -0.09858672878750019 -0.13177040812711716 -0.06092020429329449
-0.01241978528156813 -0.01292632228912416  0.02367722282549740  0.01327672569243548 -0.08841415800532942 -0.13116245088061088 -0.05971323206103701
-0.00685458672050828 -0.01807451618121031  0.03259382301936493  0.02203101185663317 -0.07546448077543516 -0.12865304735099423 -0.05835120384758178
 0.02186798032154781  0.00367550093871298  0.02386931747137910  0.03486897623836559 -0.06479933637195542 -0.12545320845068328 -0.05698423014710389
-0.02293918350102760  0.03293944312602214  0.01025674307664519  0.04745210155655048 -0.05367542222821704 -0.12143946957626582 -0.05554921245345386
 0.01867725046404178  0.01386541309827360 -0.01068136386716730  0.06119297804834025 -0.04130396382584878 -0.11579509866534371 -0.05400021525205986
 0.00382119836372557 -0.01858541333263072 -0.03129681828987335  0.07284463691589234 -0.02788152591343319 -0.10948232980955890 -0.05237474793390159
-0.01921135639117243 -0.01074888629014832 -0.02632799826831364  0.07138644506794777 -0.01104451239900198 -0.10467211101551292 -0.05069958070360266
 0.00149055075780452  0.00790983427741731 -0.01327386605950191  0.06388158907520881  0.00754719237301569 -0.10009069249044430 -0.04896460793331190
 0.01068851523630690  0.00072807711277257  0.00496254236095273  0.05490349735768594  0.02449410927275183 -0.09515116618731354 -0.04721657515298067
 0.00362452597362295 -0.01218882045348938  0.02382386093941376  0.04367031007334180  0.04147148286188519 -0.08993096932323110 -0.04542539007137902
-0.00879771964228498 -0.00347735051857024  0.02270655677755630  0.03152250355560989  0.06209228717743958 -0.08386161251604397 -0.04350266483356470
-0.01834652931474704  0.00945358859023695  0.01476228914657782  0.01918455285974903  0.08206125885757674 -0.07725468338234603 -0.04154247675691684
 0.03273258261963050  0.01073070447192791  0.00496736911616031  0.00466873192639640  0.10343474599839146 -0.07047613091896190 -0.03951300321341509
-0.00363540907199438  0.00914868451062980 -0.00586637635213726 -0.00933624961469891  0.12214988801812887 -0.06333372951130210 -0.03749080797850558
-0.01869600093937412 -0.00257608944132643 -0.00863689501706398 -0.01621397142218730  0.12571244764626440 -0.05555568737007308 -0.03571580345614219
 0.01552702753117371 -0.01612566869414605 -0.00834704520757535 -0.02012771915898159  0.12219845561337796 -0.04745447936682700 -0.03403457071694414
-0.01171877120974029 -0.01326077541299712 -0.00861730494772014 -0.02222951288961532  0.11528885979339676 -0.03876456193772732 -0.03237993339553710
 0.00435097589912335 -0.00617700949837851 -0.00806182703584733 -0.02306054279777686  0.10520873600098735 -0.02987711847764862 -0.03074721409041506
 0.00405806885852820  0.00570342112483993 -0.00584371117619298 -0.02605000162710828  0.09628605724970050 -0.02183051332457612 -0.02905032110515313
-0.00863186405863497  0.01843693069185625 -0.00309184983861005 -0.02888599434946422  0.08662212583271668 -0.01384579354833939 -0.02733055472949268
 0.01134571609594355  0.01110715131713575  0.00058370711938440 -0.03139683608366838  0.07497130616167620 -0.00608834272575483 -0.02561370188470026
-0.01011308173047688 -0.00136786842583098  0.00421604094304481 -0.03295475394202413  0.06229711433248599  0.00180584741496353 -0.02388329859216240
 0.00571288184721719 -0.00677161672966494  0.00453052927427555 -0.03027302751538040  0.04896151607802812  0.01161623070372437 -0.02214051365820842
 0.00782885653474312 -0.01078231999215351  0.00341164550698668 -0.02552383896174541  0.03490181566267766  0.02218463848783142 -0.02038479723835335
-0.01573980482185974 -0.00183298941436786  0.00286179272707286 -0.02054327191871058  0.02183014376907908  0.03199699791285053 -0.01857286825408007
 0.00399820260002411  0.01017832564400557  0.00192620160333109 -0.01483496376365671  0.00868450444520731  0.04169091346756376 -0.01673418399647515
 0.00825361605731929  0.00535203776472190 -0.00049571236172212 -0.00816117207896018 -0.00747719119959502  0.05238285325905478 -0.01494543144083585
-0.01977350166415095 -0.00176751079778041 -0.00288593539354943 -0.00150478104011788 -0.02353693247765300  0.06259916601052856 -0.01313050463730581
 0.02697503730160341 -0.01254640152480842 -0.00703463987570604  0.00622153582821220 -0.04051130795236321  0.07311721649506140 -0.01131244027203577
-0.01682013713663670 -0.02622159023089332 -0.01073100955983497  0.01336165297567297 -0.05592847384139720  0.08245748621103391 -0.00943592841797639
 0.00714550479133709  0.00264016268997937 -0.00741879978251955  0.01560973008256583 -0.06179991826648665  0.08604000160542273 -0.00730768112033810
-0.00633011854986248  0.04359560662374699 -0.00184803497072248  0.01584734416769409 -0.06316747857294820  0.08676968676927780 -0.00504900546721555
 0.00324402779681506  0.01533366262206649  0.00459839053507527  0.01432971361877697 -0.06286849586076856  0.08629949693872081 -0.00275479565073415
 0.00778218260157404 -0.03100340951181994  0.01111477702850017  0.01191678543317933 -0.06058375357164030  0.08444529819223703 -0.00039888017209016
-0.01166790635257436 -0.01585198529381501  0.01237355143420094  0.01219920338768430 -0.05792300073306950  0.08211426467395325  0.00202887288354705
-0.00810278391974819  0.01362553549314954  0.01098834210184070  0.01262519950919548 -0.05464167160602734  0.07920026182188884  0.00448711659962928
 0.02179185877004944  0.01413579688200611  0.01171475102341873  0.01302217273624303 -0.04969160746189845  0.07510602990262084  0.00701199814748882
-0.01091507302103471  0.00910776181220818  0.01144616519021489  0.01271538631120182 -0.04424650055884639  0.07052977771516616  0.00954448255101807
 0.00214613038388675 -0.00587858468371637  0.00475248137024525  0.00748933108412211 -0.04090243643939345  0.06703111499741858  0.01190696328734308
-0.00062208861922352 -0.02452310747013513 -0.00285236299778093 -0.00015621549381892 -0.03811254160042007  0.06369581212259770  0.01420650405867340
 0.00008157780979662 -0.00817170209996845 -0.01570916039437275 -0.00598359413485019 -0.03522843883084956  0.06011724517332159  0.01653007247680423
-0.00879409276167939  0.01739011406358329 -0.02765646930556282 -0.01221397770884146 -0.03227852465830531  0.05634160611347161  0.01884734425721984
 0.01303604176559774  0.00959672589680191 -0.02076050323379780 -0.02324311504001937 -0.02843652251338426  0.05193614881953520  0.02114422430514407
 0.00176458596141331 -0.00568515272535723 -0.00834360587278818 -0.03420222763697493 -0.02419028592257502  0.04715046818095760  0.02346121801518816
-0.01222472672829081 -0.00918267250171583  0.00893480737492316 -0.04726563472989361 -0.01991812278778693  0.04223720249597714  0.02573714687663986
 0.00473076441243812 -0.01072851032290363  0.02620257460351862 -0.05822286459863236 -0.01547448391095520  0.03707998633958619  0.02804853347679181
-0.00093480412410770  0.00269921633165775  0.02312783883267084 -0.05291973636087603 -0.01085380164630581  0.03155260053344333  0.03060168643336899
 0.01284492911721683  0.02023862976048824  0.01257162460709746 -0.04035628082176536 -0.00619948782371345  0.02583462958134297  0.03324795557919001
-0.01725759339411051  0.01040926440735305  0.00272789117159794 -0.02724824256092974 -0.00104469550623823  0.01971407572811789  0.03597230015406935
-0.00558081197008845 -0.00721144390580597 -0.00836803547239983 -0.01189957269521500  0.00413884836823321  0.01347106586083649  0.03872294981429828
 0.01801308785286614 -0.00613338089991162 -0.01651660125786144  0.00550733875937589  0.00817280907762120  0.00782845295437425  0.04131029351341490
 0.00937366092337856  0.00082783522644781 -0.02100973601793106  0.02251229833461895  0.01201739768084161  0.00223582422549464  0.04386071962703098
-0.02705991825840600 -0.00525502809177766 -0.03422811701454662  0.04281814178181129  0.01544489290512730 -0.00317998933253317  0.04636901801021973
 0.00953709524724424 -0.01531530867013877 -0.04486347152413749  0.06130507450445705  0.01897041384506194 -0.00868768150411361  0.04887187810154384
 0.00443867062046761  0.00106712045256139 -0.02635587127128689  0.06465449246074227  0.02489896019174676 -0.01557204159333026  0.05159566913902373
-0.00948020082001361  0.02507903227411819 -0.00093390287477651  0.06180854323687818  0.03176897190355214 -0.02299745720415004  0.05439101348430744
 0.01000615846297623  0.00708280777650484  0.03829481973312020  0.05427420975941830  0.03772384383014171 -0.02988729750862613  0.05705045794640252
 0.01057801542486129 -0.02283083976842505  0.07605881013977770  0.04420430270923145  0.04356264846458113 -0.03669146832114601  0.05966353135106304
-0.02553795544140962 -0.00734967237688459  0.06202274161119108  0.04166499882871349  0.05063137881477833 -0.04418744741115980  0.06239195597470416
 0.01180488501034932  0.02040366004952063  0.03150672992274151  0.03997313242404851  0.05717250575667082 -0.05134013247620582  0.06502421931278013
-0.00506354388300418  0.00596856663880516 -0.00664887706917225  0.03732740761999092  0.06417140142049624 -0.05870480927568075  0.06767685454846963
 0.02649098686551030 -0.01891643662986921 -0.04585095192994474  0.03335854691714552  0.06983525138348941 -0.06523235242948384  0.07013295582302495
-0.03833618585593571 -0.00732560834149030 -0.04634630610994545  0.01936672324739937  0.06859319739566752 -0.06768558556215515  0.07173376522633945
 0.01872299716707282  0.01259989195671706 -0.02997443800910994 -0.00033083831944527  0.06401720166495295 -0.06812061186972830  0.07290379740941606
-0.00470648529631159  0.01079961394481757 -0.02420630781825611 -0.01125536974587432  0.05812244972500716 -0.06768898033597932  0.07384407952648370
 0.00997355000708303  0.00347071132721626 -0.01483325125242793 -0.02271006114197912  0.05072267837991949 -0.06627507607158246  0.07456044875163502
-0.01573472496862216 -0.00352383458308970  0.02193949923094501 -0.05640004681858753  0.04301106859186334 -0.06455711909141222  0.07526515763882594
 0.02679955453712723 -0.00955073321599238  0.06065176670256223 -0.09126585395385299  0.03483026436116671 -0.06242768730166617  0.07587168887061034
-0.03340196802038588 -0.01208714890715897  0.11278602206209844 -0.13287949699377150  0.02542435396359640 -0.05947265079686005  0.07631288869253061
 0.02087063305135969 -0.01356594468557994  0.15875274052041255 -0.16731949640627863  0.01569129062968434 -0.05616613230741446  0.07664590919793413
-0.00942065550368067  0.00160408448931890  0.11774175388591156 -0.14083497026054212  0.00752117313633121 -0.05353162786318984  0.07692024211596712
 0.00241162535095579  0.01907444320957841  0.03856327817821710 -0.08603093114671609 -0.00020603082338976 -0.05097235182329669  0.07711496705470047
-0.00096619877314740  0.01467629436144281 -0.00661111472295190 -0.04011592579073743 -0.00769993058691637 -0.04825620111629936  0.07729107662854137
 0.02599089879221200  0.01465432339320831 -0.05877892153131942  0.01285527055189601 -0.01510050078506440 -0.04539311804287819  0.07740804762171666
-0.03834140703515350 -0.02239321653088482 -0.16500167019630135  0.09753227251767366 -0.02350115775763071 -0.04204543948674048  0.07734161848882035
-0.00114496851299964 -0.08638389440497651 -0.25274237388451260  0.18224512310623017 -0.03207927369291225 -0.03843548662829852  0.07722287401731610
 0.02783064028630984  0.06216358354125734 -0.45708988816202010  0.28379106150084665 -0.04049920658654036 -0.03470707597085956  0.07701088539091996
-0.01396889244325077  0.26406501870550925 -0.63056708703026480  0.37151480846464785 -0.04870217404967483 -0.03083319578641219  0.07680952213937862
-0.00747617889525603  0.04312964409330841 -0.38589830403015190  0.34428976494559066 -0.05578653856546811 -0.02688643023843823  0.07694604269027862
 0.08564891062564730 -0.26310308434779495 -0.03365072296306573  0.26537874624778074 -0.06205637621511845 -0.02288514654990868  0.07721267320224849
-0.10244659385422329 -0.26298459073789540  0.48074842197156437  0.18574139276054347 -0.06902232185634880 -0.01864233706033768  0.07751502877652361
-0.12888571329115867 -0.19345225247867806  0.97709134958604080  0.09037689178085014 -0.07554786545503156 -0.01434170327541635  0.07785029313340819
 0.26992532455273194  0.09631769100241605  0.84857928156144480 -0.02820209446853844 -0.07904733454137160 -0.01040928496834698  0.07810941686177800
-0.06384493220167614  0.43914228470110890  0.51378615293205080 -0.14598494140030036 -0.08184707257335559 -0.00650300337735421  0.07834251191965143
-0.08905000992535193  0.25191232428734240  0.06057400717897030 -0.28593651162217860 -0.08322502055402144 -0.00272571002824308  0.07858692066341628
 0.03002809081617135 -0.08166447274669018 -0.41538883295898020 -0.41262735241040400 -0.08468897703418100  0.00111578013635671  0.07881676419754656
 0.00951563715070889 -0.14627182324374380 -0.45741933604282050 -0.42249884883023053 -0.09227260555470651  0.00588407718818717  0.07901789933237878
-0.01148641180274168 -0.13269950273434940 -0.34734160172220674 -0.38093696065992860 -0.10216291439448955  0.01101804014026320  0.07920035117325650
 0.01934256027159413 -0.11171202672098317 -0.20581146313307955 -0.32687513626606030 -0.11013801372163422  0.01583199273603099  0.07931708683400164
-0.00453553945300621 -0.08384188243299120 -0.03476715287860292 -0.25465769767665614 -0.11788678015425545  0.02060290590870477  0.07940414668673802
-0.00729099084141995  0.04864009730750735  0.01140352537618974 -0.18165073187234365 -0.12776502795488180  0.02578500791137895  0.07956012007348705
-0.00662193374924877  0.20715642789213576  0.01519972339125254 -0.10841639678814398 -0.13630364330025455  0.03074956087515938  0.07969126167897489
 0.00886145993701266  0.08838866359683503  0.03337854272011935 -0.01879723733500728 -0.14605446468711650  0.03585572461202092  0.07982231115603830
 0.03901062592296302 -0.10569486770105109  0.04291147746530154  0.06795455943231170 -0.15287717386958977  0.04044151131572558  0.07988986743427215
-0.05813133921100541 -0.07034005398093070  0.03256418160970229  0.10669156242914480 -0.14462330947575620  0.04249255421395896  0.07966440441476498
-0.03758753077094360  0.01960731922638716  0.01533177041570542  0.12579492413809800 -0.12936625123390200  0.04329437691148285  0.07928939131299151
 0.08952947886028060  0.03503847253042966 -0.01466569893318741  0.13376182222546118 -0.11007012940872263  0.04351874588745418  0.07888730883805899
 0.02558866764966019  0.03817902346119878 -0.04531267986618559  0.13379165407017810 -0.08761526452625670  0.04313075702741148  0.07841984218365247
-0.10463712525707947 -0.00934532130177305 -0.04032159157781629  0.14818480823164204 -0.06783921932897445  0.04264761768741369  0.07785583154621191
 0.04727391451984065 -0.07156466498315076 -0.02340120207388438  0.16229753713813141 -0.04760328632806579  0.04191738018035150  0.07726232154639565
-0.00683120033860693 -0.03521224068101564 -0.00223048686271301  0.17408941811193904 -0.02602010793746963  0.04070312814682363  0.07659248956074849
 0.02201736172201899  0.02590083925868224  0.02043073474902264  0.18054944510524960 -0.00334691364685732  0.03924793135301240  0.07592760145862909
-0.02773609010514031  0.02874719000855111  0.02527054669063796  0.16284999046043677  0.02318304613001300  0.03798154157579468  0.07552177523948404
 0.02137653260603764  0.01918037152017072  0.02353079406767609  0.13312996405240460  0.05162615825995242  0.03666150157286981  0.07522167792060983
-0.01743701071708768 -0.00480351703201108  0.02117282383618525  0.10404284264886064  0.07775414906199858  0.03528445834127343  0.07489525386048537
 0.01516218644748955 -0.03603369360771455  0.01707171460463912  0.07099921057674953  0.10368394372114999  0.03379869287072734  0.07459094538662125
-0.01031765770244519 -0.00457084883943964  0.01418614359003163  0.02794822172659038  0.13413153546228623  0.03191651808159770  0.07434208768103395
-0.00519239833786662  0.04428107944205071  0.01125499041430579 -0.01538537606590193  0.16361922995055947  0.02989010781399794  0.07407736678249252
 0.01254380360563442  0.01707703111252293  0.00755757792798852 -0.06560593327225311  0.19445769003916696  0.02771704353549158  0.07388878705104143
 0.01233547453226597 -0.02785968438195872  0.00368919826669025 -0.11129790640218112  0.22177200086477610  0.02552230430987657  0.07365661281006126
-0.02594650560239452 -0.01917435250642637 -0.00019742232457144 -0.11870702497827074  0.23012077409715540  0.02376240983499256  0.07305112147904205
-0.01155466634892479 -0.00092556008635119 -0.00395740081226407 -0.10950918533505505  0.22928814692542968  0.02216971198885250  0.07230695366785420
 0.02924192240390131  0.02219681387501708 -0.00675026489649135 -0.09390222267429531  0.22484583730381233  0.02054367216741009  0.07146024182023424
 0.02935464310933429  0.04873388034718043 -0.00913582848391367 -0.07210213228772848  0.21616048928192358  0.01895173616992801  0.07058221186288317
-0.06445201465399257  0.00034765560434011 -0.01140898546505180 -0.05522092879618963  0.20627797105464150  0.01741786223286213  0.06994744002298575
 0.01139276976283879 -0.06592007531470165 -0.01235645070671019 -0.03866431266946174  0.19484546660694047  0.01586958241667430  0.06937801990399431
 0.02328503370587060 -0.04274367484268105 -0.01634306597964678 -0.01781930770884985  0.17980433081496652  0.01439675370184186  0.06887493030810891
 0.01260160872186615  0.00265778991438245 -0.01919145442777817  0.00347465022011639  0.16354236108840245  0.01288458606707726  0.06839445841554767
-0.03273984863068206  0.02451934786655553 -0.01044764991794953  0.02140539736750444  0.15138836800744070  0.01096625093485232  0.06763513437190337
 0.00567721695039332  0.04115478636128658  0.00102664106595284  0.03883304553068987  0.14017738344025100  0.00887946222915137  0.06679646442191703
 0.01625651113278578  0.01785557112872549  0.01784282260647032  0.04896138350730915  0.12863120904069567  0.00682714165906332  0.06617036092457271
-0.02773743901680291 -0.01818152833502223  0.03379206847710522  0.05768400846949980  0.11679170588243068  0.00475038999529532  0.06562779452710327
 0.03360408965928482 -0.01234452763230989  0.02945870123546973  0.08142147125493540  0.10286538006551550  0.00261377750717453  0.06492610790954209
-0.01498586951607697  0.00601655550933483  0.01856733319008812  0.10519219984998907  0.08794343898988310  0.00052801377131555  0.06437432820509630
-0.00039550288083286 -0.00194614585461758  0.00212357870892123  0.13274271235579110  0.07291990871301855 -0.00162144411443732  0.06381289307181788
-0.00413063522985542 -0.01997694158721102 -0.01494129926341384  0.15444734581895353  0.05744066176347242 -0.00365972187046162  0.06354759036825113
 0.00818651269132999  0.00422416726849776 -0.01493007500590483  0.13431884169676847  0.04152281072028402 -0.00511506644421539  0.06451980907296156
-0.01831716192727714  0.04591924660557924 -0.01017071690513112  0.09499918211000938  0.02556029508585662 -0.00630011272562522  0.06612726775628308
 0.01779703497837033 -0.01676093950857606  0.00129865616758158  0.05681241213482569  0.00807698063932545 -0.00728278371100920  0.06805863929918869
 0.03059398510261158 -0.10931720135000574  0.01290560720217625  0.01305370403455696 -0.00947965467050636 -0.00812816946987407  0.07032672915074788
-0.05810536920843592 -0.01419250271935226  0.00489522806904504 -0.04247938519471660 -0.02351776450591736 -0.00914596892800425  0.07268176248711579
 0.00742897175605881  0.12697265881896544 -0.00678357467500226 -0.09749242860555943 -0.03701306011991068 -0.01013128645098999  0.07520071927623137
 0.03084792561470067  0.07419925646819538 -0.03103684423888186 -0.16162382953464427 -0.04917230867570731 -0.01106993288197677  0.07799173324812464
-0.02200132678162544 -0.02677185233679111 -0.05366620335625622 -0.21911922296083466 -0.06169826963003453 -0.01191500821866462  0.08094488328399911
 0.01077360174360589 -0.04493035419419068 -0.03497275144976705 -0.22310923238532510 -0.08187239530771276 -0.01235498017506507  0.08387511176824593
 0.01668799749663635 -0.04353414884471278 -0.00675175256128625 -0.20335210515421195 -0.10502723727181655 -0.01258928835799003  0.08688453469315562
-0.03494118721076234 -0.01472328982989445  0.04243454370327909 -0.17685328767322658 -0.12575824653955764 -0.01289605480583429  0.08996452235582067
 0.00396790619037973  0.02109938528954623  0.08969644178085312 -0.14165574490060223 -0.14623696634252810 -0.01314880306307829  0.09314178104532660
 0.01518303350694220  0.02095060658803509  0.06413296623412810 -0.10710923460054356 -0.16971711068858536 -0.01312861181700136  0.09655235077691240
 0.01283775794907260  0.01727784209893252  0.01863303960410232 -0.07222713078883192 -0.19152042929263820 -0.01311803092968944  0.10007195135886410
-0.03357659130984820 -0.03064000989891586 -0.04938336532490693 -0.03005443559147093 -0.21480283548541007 -0.01293333899382737  0.10370857660414866
 0.03415431986760048 -0.09214397352706985 -0.11632759622809774  0.01143266611181273 -0.23421478016526723 -0.01288455064355359  0.10739291458428318
-0.03029719612079988 -0.00650685868472279 -0.09390823734876692  0.03487492753821930 -0.23392940308370410 -0.01389102999006922  0.11088479768959107
 0.00416487889574417  0.11203065485052652 -0.04197694411654875  0.05112713320337113 -0.22433571358964338 -0.01533754665916773  0.11432753741550489
 0.01204974438280129  0.08513064259779388  0.01957087323442609  0.06187903739262108 -0.20960839953219312 -0.01701598451448955  0.11781208643884840
 0.01657420507899180  0.02312109688230140  0.08372329685248703  0.06937859902760020 -0.19054124868924943 -0.01884456848001876  0.12131561932766222
-0.03594890465532397 -0.04082282285280603  0.09617528085657410  0.08485272615875700 -0.17386435939559325 -0.02034046607950461  0.12485754596763134
 0.01665685000488579 -0.10555834976921794  0.08500284555999824  0.09993296719107901 -0.15616299605383918 -0.02177422099028615  0.12844790405704790
-0.00531709897314011 -0.05334372790038878  0.08754508603588415  0.11479410112704600 -0.13614710775041483 -0.02321427787912800  0.13204702533985266
 0.01991745390698244  0.03135406265625514  0.08203005255131568  0.12611422173053355 -0.11446253077731881 -0.02465119223546792  0.13569793216743580
-0.02927725247534460  0.03791937062719244  0.03394835164856891  0.11950706083835602 -0.08907884497743852 -0.02636103975123552  0.13952435408963196
 0.02398714832337769  0.02527740369352503 -0.02103274895680764  0.10420356470760472 -0.06153675392847337 -0.02816175376925440  0.14344513992970503
-0.02006980290339173  0.00520814704561796 -0.10833218820240813  0.08783575558390606 -0.03585303383296028 -0.02964341188496001  0.14739953419383542
 0.02123197581415850 -0.02208100300146882 -0.18951616381222880  0.06827024015693238 -0.00996709135528814 -0.03102077025011614  0.15140081244757840
-0.01887179989714832 -0.00415653605516391 -0.15319940508478458  0.04429176281457445  0.02090235306606814 -0.03277621052227558  0.15544583567831366
 0.00630683767829329  0.02954523967873856 -0.08073303814832238  0.01978695879400745  0.05122797353423556 -0.03437255125367163  0.15951157971631408
 0.00184735074367917 -0.00686091000549978  0.02370397893562715 -0.00859021385480533  0.08337318161429251 -0.03600994329506699  0.16362755586136530
 0.01238833380864159 -0.05882961151847010  0.12978083224263337 -0.03530308973330767  0.11236830503966153 -0.03724439893030585  0.16774862909072527
-0.01426303423093681 -0.01697336556416446  0.12034152987674723 -0.04444379871693962  0.12272638178070588 -0.03660112937302527  0.17175841622718670
-0.04179477554996783  0.04084620583715710  0.07267384635379737 -0.04589912746758956  0.12435028347421836 -0.03499879276758325  0.17573136011953802
 0.06526102217948168  0.06345359749462576  0.00847511806082532 -0.04517779891649985  0.12213844473088771 -0.03310742913434601  0.17968404558459042
 0.04150157078837557  0.08262725202987908 -0.06053609319388287 -0.04157970546036898  0.11602243615781285 -0.03075605539771271  0.18362959507542562
-0.10089626476920262 -0.02028474900838213 -0.06430622530568005 -0.03816783653475117  0.11051017849813416 -0.02794870229144625  0.18763859941078842
-0.02153806967273699 -0.15779075307193216 -0.04537782796604405 -0.03435051645425663  0.10394171141077019 -0.02491114106398657  0.19166259681765593
 0.10494419598165018 -0.06618576933731882 -0.02340283608777890 -0.02825142434662242  0.09458729783532634 -0.02138786337247367  0.19569639932667288
-0.04838521128842251  0.09248717927332402  0.00264662637071950 -0.02183083097637966  0.08402661361261715 -0.01776383663175380  0.19972845963930225
 0.00007021707955448  0.04575623281931963  0.01349893024355746 -0.01969591663718595  0.07440175314713934 -0.01517410105328467  0.20368788440030522
 0.03596528697891645 -0.06227939540031507  0.01900285396603789 -0.01919070531927359  0.06454235966390284 -0.01293150413341087  0.20761810424358626
-0.05167946262681915  0.02134768532570865  0.02476136860800392 -0.01807168077215264  0.05526978961151666 -0.01047976678406753  0.21157906663724420
-0.04304880587162378  0.15052759970775692  0.02875789389792312 -0.01719954506597887  0.04579312782444172 -0.00800819066805017  0.21554192017499502
 0.09596346201210726  0.02828491607675902  0.02999158467199587 -0.01738177244971414  0.03328912770466241 -0.00560609933512383  0.21945878131877140
 0.03404374610257800 -0.14591257819744766  0.02811113661215110 -0.01744278010705138  0.02046212807889350 -0.00301532849773499  0.22338967600800178
-0.11056827632156802 -0.13404625662201640  0.02920979413099523 -0.01806763784856179  0.00678017464503421 -0.00059886941345251  0.22729107142891106
-0.01709550514342621 -0.08091211327490400  0.02840975643772552 -0.01813568784563648 -0.00597129773680226  0.00210951087041224  0.23123133669199700
 0.09916228506871890  0.05528827437550376  0.01279657772668485 -0.01332975675388074 -0.01171839725290641  0.00638853767661775  0.23541247915866315
-0.02090791197679668  0.21567255998151633 -0.00648341332615064 -0.00617730929429218 -0.01422688356778432  0.01133616986197153  0.23969578832093227
-0.03542252758097277  0.10023241581372377 -0.02994771775711413 -0.00051963518016696 -0.01589346821616998  0.01678233037030080  0.24404160254973759
 0.02602805325136789 -0.09439070205290384 -0.05224677441093017  0.00557676689498469 -0.01623581527926422  0.02248070180952222  0.24842376978649858
-0.01952998535007017 -0.06962713709552970 -0.05139512907378053  0.01592953077397822 -0.01589505962271866  0.02743631362296911  0.25271746674439850
 0.00185755062979049  0.01714819568395784 -0.04021779722803386  0.02637985401749006 -0.01517012010507058  0.03227931105557542  0.25699600594552590
 0.01147101138598911 -0.02199161590803823 -0.03363999318591040  0.03822875253380741 -0.01309895040830184  0.03703563475055456  0.26126816083115270
 0.01201726713265032 -0.08856607787522129 -0.02397752585812760  0.04840362896259921 -0.01088191638964143  0.04182802292734154  0.26554060109965550
-0.02351811174548952 -0.01044848709731939 -0.00315694628583783  0.04546295930409427 -0.01172841190136976  0.04765999453256740  0.26991100319259503
-0.01041386771826664  0.09700946009376088  0.01648304778442215  0.03619385032744146 -0.01364188180460546  0.05387446659629277  0.27431292472019214
 0.03407342013070105  0.08246951167591891  0.05577229715015316  0.02863648921280714 -0.01535391365286178  0.05940488845259884  0.27863330702993650
-0.02468412704897033  0.03772847804818864  0.09101975293361367  0.01921040787238293 -0.01713183128104407  0.06475083498975864  0.28292448448534546
 0.01365978168115476 -0.03175285355836741  0.06057713023986127  0.00186948042598298 -0.01856137372756480  0.07091385855819582  0.28729397637997920
 0.00408548915251798 -0.10567117924618125  0.01339732608164343 -0.01624703995092635 -0.01950025464385489  0.07668915340333787  0.29161050520266724
-0.01712324109509566 -0.06797932347312963 -0.06046745493197695 -0.03765315442779966 -0.02078450243191147  0.08261844594763593  0.29593423041145417
 0.00832408510866262  0.00041644666458603 -0.13207939850329078 -0.05673588243546569 -0.02148624175683304  0.08760037484011923  0.30014261608140660
 0.00354943894401578  0.03613306641359793 -0.10350953495258396 -0.05265945337644271 -0.01948223226201065  0.08811629494289926  0.30385242028973700
-0.03215746422740307  0.06147244861392320 -0.04323066990707294 -0.03760302295554829 -0.01635221733109610  0.08638258651794785  0.30730633928848505
 0.03875687725074476  0.03688282590661310  0.03412724145375740 -0.02705334972020809 -0.01170623974415301  0.08380738671519532  0.31064025813728924
 0.04728847404519985  0.00069224888328795  0.11349696017126164 -0.01368071071276947 -0.00650274090726776  0.08013879947867275  0.31383996904080720
-0.09744103131849431 -0.02736684659581295  0.11610901613043954  0.01534809756651954 -0.00378615824367177  0.07578799749379922  0.31698492496637426
 0.00156007165901538 -0.05949962649605105  0.08825014620021800  0.04539349875467073 -0.00124431911975087  0.07093296782769856  0.32006226117333364
 0.05848353912188037  0.00700580222899495  0.06863683191061135  0.08210538505068941  0.00078436101102816  0.06505242915694605  0.32302265151899110
 0.02521897022777335  0.10631602860258192  0.04154379226764746  0.11371564369641675  0.00334948857307873  0.05884330621490121  0.32592177041668710
-0.07432387933169032  0.01267693825028369  0.00050163896295989  0.09737237558510241  0.01130215956604019  0.05413509104992129  0.32888067591645387
-0.00051980647944956 -0.13484206394916073 -0.03577521081467185  0.05886697937223921  0.02151618431975992  0.04983472257803976  0.33182819497231350
 0.04377747724411076 -0.04586884375810132 -0.10969035773842828  0.02728249580552289  0.03037384200820682  0.04520781243291844  0.33473557400483730
 0.02185133836550291  0.10731040762977617 -0.17595823376071137 -0.00987264771160321  0.03932835967366544  0.04046360006849237  0.33760417573390156
-0.06081762058230566  0.04233496457168246 -0.11495006897913620 -0.07186083635939094  0.05049342497727603  0.03549597639397130  0.34039515997698630
 0.01063944291508059 -0.08077895305335608 -0.02020278094709454 -0.13424432976890796  0.06074647581743132  0.03016212918006700  0.34313301585595335
 0.02407323138528720 -0.02268405284442217  0.11377117065403960 -0.20927191318410132  0.07243054323439505  0.02493754906909754  0.34583447168498377
-0.00996187479357359  0.07910404920216861  0.24412022424688515 -0.27408545147557660  0.08174765050156083  0.01930717403090602  0.34849522828698210
-0.00033992386237253  0.02861615845534767  0.20120380406010040 -0.25143645799975490  0.07779982019861856  0.01194532924183473  0.35112026990557880
 0.00505865275210207 -0.05588659761124892  0.09368149914753900 -0.18903284278940140  0.06790943133213620  0.00382973685606462  0.35371312031212300
-0.00977213744253483 -0.05385765549022398 -0.00232383937864983 -0.12995332426381814  0.05407652585763569 -0.00496895339729733  0.35625438411407630
 0.00496379623620591 -0.02234935992127363 -0.10781570512546956 -0.05929452313669076  0.03762652334372511 -0.01407632738403380  0.35876359598658186
-0.00023079263364197  0.00321065221469739 -0.19557604671560270  0.03776646562775350  0.02516834197741375 -0.02217087670919178  0.36128725623763750
 0.00160814097342052  0.00929911505261409 -0.24776425184049210  0.13492059183323668  0.01264424065739093 -0.03013199907269831  0.36378816239566670
 0.00129013398257491  0.12029796125014061 -0.38617145574154790  0.25082564887894810 -0.00041125769589129 -0.03792534277756944  0.36627631210250900
-0.03508016050300576  0.25277661937692100 -0.49641434378583366  0.35434222331267450 -0.01455834275677815 -0.04579760173153333  0.36873160608671160
 0.03562380743047380  0.01414941896463988 -0.29429983349227220  0.34814707602913036 -0.03534290106993713 -0.05533996811255697  0.37106240024961770
 0.10889034511461980 -0.29047109650066780 -0.01093720411455991  0.29289038716252314 -0.05909716263294107 -0.06551191176881416  0.37332764273882507
-0.17564224712055795 -0.30772276654550630  0.38910769554692726  0.23422447786537245 -0.08008332680385608 -0.07475969806452010  0.37560286512120894
-0.06237191517818010 -0.26239022466904194  0.77472734216809910  0.15981755088759730 -0.10094604837954480 -0.08378385939605716  0.37785615456640640
 0.21239129708232735  0.10956216077517235  0.69600675400362130  0.06777745569091918 -0.12675045731243773 -0.09392880954576700  0.38003259930558240
-0.01700230024226364  0.56355899943992940  0.45593847985423410 -0.02454746194401237 -0.15117029987516230 -0.10352683824014132  0.38220442100683966
-0.11399396937995565  0.29994168231110430  0.14819751328012498 -0.13654451863015216 -0.17765220699793980 -0.11337286900700600  0.38433336842308197
 0.00640168180897326 -0.16027832991929078 -0.18355271826557001 -0.23939651234713440 -0.19982077072133828 -0.12189007286389120  0.38649172230737530
 0.06061895209167437 -0.18932826532434450 -0.27018884537578597 -0.24948084490581068 -0.19828772608050180 -0.12410215632529274  0.38890488591916380
-0.01152641295492864 -0.10093782460992659 -0.26317731375314250 -0.21899940722422995 -0.18568126005096544 -0.12315281931607422  0.39143003790838510
-0.01718228580058685 -0.08575079887414370 -0.26264923224390760 -0.18211954128151644 -0.16755490969078157 -0.12095231256626077  0.39398208045634536
 0.00751582330458292 -0.07753350110053461 -0.23567551401672826 -0.13178987172784343 -0.14447127184678077 -0.11720943382464026  0.39657276921115500
 0.00359501134470103  0.03126362459688084 -0.18029028844925934 -0.07562545643126739 -0.12366061963428879 -0.11267382487145607  0.39916455344385704
-0.04223587261866813  0.15772926975225351 -0.11396673772884142 -0.01948531188136283 -0.10180760902228016 -0.10744460780023951  0.40175586929826140
 0.06004557589337426  0.10071792205809488 -0.01894418607170702  0.05059473514414700 -0.07706117981434811 -0.10082165283906030  0.40437778562867380
 0.00642707658570970 -0.00761985137517713  0.07615547412690818  0.11632176538749311 -0.05076197231635395 -0.09369596199984778  0.40699146959048830
-0.05394318636015479 -0.04758786805908075  0.09311484323293212  0.12871096171750931 -0.02260606024487620 -0.08828320878583659  0.40950351849864990
 0.02028821908863826 -0.06625846373298012  0.08080255128168211  0.11825290580866195  0.00694055900717752 -0.08326791815072554  0.41196914669659557
-0.00008129651923546 -0.05639221232116051  0.05993238948653672  0.10273006004566551  0.03434245720167625 -0.07785877542726470  0.41441837753277410
 0.02890546613597633 -0.03418962459666824  0.03158269240256736  0.07945846630372318  0.06164856209238923 -0.07225054723709902  0.41684498489801197
-0.04505374174920294  0.01833798319072134  0.02314473122913532  0.05658990054596088  0.09424186926277940 -0.06616297755837976  0.41926623507791916
 0.02628894602425260  0.07150486083292931  0.02010946618578446  0.03369775511641442  0.12631089659172456 -0.05958865834635622  0.42167673359420340
-0.01473530089517533  0.06997417836822689  0.01484988454424033  0.00420074655114061  0.15977929476191147 -0.05303428546250607  0.42405648213114344
 0.02819680825635296  0.05595718382373942  0.00990581617176612 -0.02446367287102979  0.19000361421125528 -0.04602135546108860  0.42642160586795724
-0.03526086710197835 -0.02692579220386890  0.00329553352477683 -0.03402098902716658  0.20186288253927623 -0.03739357612298783  0.42880680839089300
 0.02426740447050709 -0.12819069103141714 -0.00309017801104136 -0.03549303289909126  0.20482039729795212 -0.02804185565780723  0.43118295582979260
-0.01453028472906970 -0.05938342777404657 -0.00990303326767898 -0.03617641848311751  0.20473388138690993 -0.01793536840237024  0.43355865126828080
 0.00402315090034443  0.05701112616133197 -0.01576637559265971 -0.03425535655061356  0.20058013484888504 -0.00750571816600209  0.43591303839759515
-0.00148721275350764  0.04188259482133055 -0.01574156527765578 -0.03065400486076325  0.19434136293902127  0.00183831843062417  0.43818450669982145
 0.03873551676804914 -0.00861569103942762 -0.01299908493371970 -0.02672900514021700  0.18649198554793225  0.01106246218493782  0.44041781661127090
-0.05328523601653062  0.00454510411132036 -0.01009535980732998 -0.02011409353957724  0.17480414588547832  0.02008471626069605  0.44260572310469300
-0.01929221934347890  0.03176340177852634 -0.00629679832520049 -0.01387379522680828  0.16207336468400876  0.02922296303648677  0.44476708339516770
 0.07011350716336777  0.00447206545460210 -0.00146044276261997 -0.01779885803904975  0.15551202672974915  0.04034638456284141  0.44699731688979100
-0.03627865338499808 -0.03443534839129419  0.00322613507628444 -0.02617980391013425  0.15074420890424833  0.05223443915404488  0.44923402255052250
 0.01178188189396356 -0.02110181157010907  0.00969393538369934 -0.03152659884421590  0.14498950055392723  0.06313031853596358  0.45139677404545730
-0.02756050283948319  0.00000611014855432  0.01551736003949262 -0.03748404892779198  0.13891676223079033  0.07381224679337514  0.45351907255380670
 0.02955028589498022  0.02012636322824813  0.01406725973198913 -0.05035650886994487  0.13175738767511674  0.08574203194352407  0.45565818039481880
 0.01119963399560770  0.05026803940556582  0.00995451077483515 -0.06290394830640358  0.12320984828947079  0.09708010586964752  0.45773680997002714
-0.02870776048645451 -0.03364671580806466  0.00434599282620479 -0.07861307980319122  0.11500893169902297  0.10872262938997944  0.45979900218120260
-0.03665560125915095 -0.14925839019014900 -0.00173840565845918 -0.09105390937688045  0.10530821713682822  0.11890726604550480  0.46176382330100700
 0.07947110118015895 -0.02091910999006336 -0.00383800502212185 -0.07816769554849479  0.08960961482645000  0.12209413395043356  0.46338596060238946
-0.03974113738113411  0.16185470810151906 -0.00464770273466025 -0.05385099788974981  0.07123320700999090  0.12178379785759737  0.46482312503525280
 0.00448669082175561  0.12662051360487303 -0.00429223008524804 -0.03004924509068053  0.05008936795221289  0.12008393150047099  0.46615197129540920
 0.01627013155031727  0.04189641893916287 -0.00360973421531726 -0.00301767738630444  0.02767679839592618  0.11668402040895151  0.46737304230604220
-0.02851220159341275 -0.06272329304818708 -0.00528984490749733  0.03007551337214018  0.00906975604397517  0.11245479661647245  0.46856127351522087
 0.00747999189196590 -0.17731462672428030 -0.00682813532711379  0.06262153194053388 -0.00930095652274474  0.10747222381454676  0.46968797092579573
 0.02327890681746849 -0.06357250958836996 -0.01113994682023533  0.10032134473568041 -0.02712465459818634  0.10096465991026757  0.47072719954213340
-0.08632122111800929  0.11031759931527925 -0.01476114536987680  0.13411090516095173 -0.04567757039825267  0.09390208804626315  0.47170234436251890
 0.11496128014213082  0.06946540936767165 -0.00846437954665035  0.13750526458947290 -0.07186684296210650  0.08866779828795016  0.47264047012039306
-0.00841287826561715 -0.01670502338328227  0.00010174378898752  0.12738544272312224 -0.10120055765406162  0.08384796679269692  0.47352830599697880
-0.06398973415054035 -0.06860593922200367  0.01348999994738367  0.11274698077710621 -0.12772967721696823  0.07861485893701155  0.47438251092677650
-0.00889627261709624 -0.12067424293044880  0.02624155715217518  0.09297757209307946 -0.15400196176466938  0.07316294657431557  0.47519040149144764
 0.05825709972118122  0.01094316573317356  0.02119466438646899  0.07460039178042444 -0.18442125033160228  0.06715291470764385  0.47590901400156205
-0.02229299692755998  0.19013286118102474  0.01074359788598675  0.05591266976546046 -0.21315036825114125  0.06061703243953345  0.47658220390562140
 0.00058840867284975  0.10161828862702274 -0.00436017623859110  0.03337603060464946 -0.24359388427593676  0.05408180773543550  0.47719852487346590
-0.01473742062832649 -0.05697949248356767 -0.01966891855646568  0.01068240077213971 -0.26961076080092067  0.04706860784954969  0.47779058384646045
 0.02088358511064572 -0.06763671726586522 -0.01766601331443541 -0.00530813688377928 -0.27263536839344910  0.03844498379038342  0.47846266695536950
-0.01128970863914314 -0.04057843449690396 -0.00993945307582275 -0.01881314776461154 -0.26471435873503707  0.02909492207665625  0.47914918063376205
 0.00327099448333425 -0.02373575517121871  0.00013916230418099 -0.02929033639850790 -0.25134399065465900  0.01895923901676351  0.47981868641903610
 0.00480859215683889 -0.00061390692836950  0.01084536286396844 -0.03838483301678968 -0.23289305193901336  0.00849294524278419  0.48047189161955484
-0.00834098343254215  0.00559334345778796  0.01193539355610947 -0.05247927977032793 -0.21585058610699690 -0.00084484890537925  0.48107796120032675
-0.00509368801619504 -0.00299873297676108  0.00955693479950706 -0.06619630575434474 -0.19740123679190105 -0.01006185676493021  0.48164988550361343
 0.01612241717753289  0.04988067008270436  0.00629751307138714 -0.08045532829420296 -0.17570969364390354 -0.01906285650782799  0.48220027811331620
-0.01782703058131289  0.11957707193669440  0.00231031614024079 -0.09216897378796218 -0.15223843835085263 -0.02819039891518338  0.48271945355739910
 0.01439417004439971  0.00368523983747090  0.00010661203183835 -0.09006437957307217 -0.12753003925074055 -0.03942339886652134  0.48319579577562060
 0.01202112624459213 -0.15443635775198420 -0.00206079708725114 -0.08144013951915507 -0.10152269278201717 -0.05147123228826445  0.48363709318304310
-0.02579084407588800 -0.10681332676362780 -0.00152509311542652 -0.07092347609647301 -0.07686030369791043 -0.06248569589386656  0.48403473964213706
-0.01377609925556082 -0.00719760012127966 -0.00109606496407425 -0.05783263033928646 -0.05193775442068311 -0.07328427943611780  0.48439742853595924
 0.03860540710737220  0.05399635500742551 -0.00697693284375293 -0.04379933493364258 -0.02226992206150292 -0.08539795038875493  0.48475137811185054
-0.00407411857988238  0.10461809908301202 -0.01285101837427182 -0.02940843289137448  0.00735864302662862 -0.09689840824690746  0.48507323598182430
-0.01810153039084037  0.06032927652985366 -0.02570651705565254 -0.01269374061216395  0.03843909726677045 -0.10872552506259348  0.48536793932362390
-0.00398893695766846 -0.01253143336951169 -0.03694384130883302  0.00365885056350328  0.06721577324046288 -0.11903172309661862  0.48562131092763690
 0.01866586348106904 -0.03537853185086687 -0.02295173896447686  0.01328326253995891  0.08151606639113566 -0.12200553445066970  0.48577961285279870
-0.00938331835445770 -0.04290924762682065 -0.00245043020684178  0.02013731903927109  0.08895581343769599 -0.12131765874217613  0.48587652245227203
 0.00584114890367235 -0.03058416728996729  0.02769160252438127  0.02501145147400565  0.09401513230518918 -0.11919066537156152  0.48594249745320384
-0.01875735521361259 -0.00970756334049231  0.05680444971603962  0.02859124256792479  0.09602710921310416 -0.11528934839228999  0.48596746544825437
 0.02604391834463082  0.01140795002436912  0.04893397293592389  0.03462497023492671  0.09700589221865225 -0.11050281319471719  0.48594110943511637
-0.01777385543523101  0.02906281234396719  0.02901980750462000  0.04036923933041466  0.09691741175484830 -0.10493263052559330  0.48588221502586380
 0.00947268454656073  0.03116834756471700  0.00160709908524222  0.04584474419908006  0.09407376331768924 -0.09776378611241911  0.48577914739798980
-0.00192591113983360  0.02815077061508501 -0.02701602930748197  0.04999992561364836  0.09043865556427665 -0.09002743771734767  0.48565302637050267
-0.00359235385120316 -0.00809113072577883 -0.02833747220952428  0.04830089726634563  0.09079049649677633 -0.08427728064506851  0.48557084366728200
-0.00653930553328100 -0.05009427592747621 -0.02034168617378673  0.04369979647019656  0.09223496093969837 -0.07899672721726501  0.48549223744072300
 0.00673911599328183 -0.04040315478514688 -0.00951849876434571  0.03834679841187202  0.09309986178596716 -0.07328211477136039  0.48538199212854490
 0.04036108346257734 -0.01649833525534813  0.00291231394586789  0.03179503983253826  0.09371021230966639 -0.06735156297008817  0.48525324867359393
-0.06163143944152710  0.01587126136926744  0.00437906927598657  0.02420485992151625  0.09329142829177393 -0.06086673731343713  0.48511555789522554
-0.01936550402403608  0.04791842749012953  0.00226608750040909  0.01631280183623129  0.09193501364847523 -0.05383419828210549  0.48494937182970770
 0.06578256714963515  0.03816223117770767  0.00026252436737029  0.00727920906193865  0.09056393687775538 -0.04683015201714594  0.48477968338157496
 0.02349359222931735  0.01694682986227576 -0.00228367589228986 -0.00152783043222661  0.08829570732780734 -0.03931660055113987  0.48457397745505150
-0.08162117789075596 -0.01621347843981734 -0.00252882173472144 -0.00641482442575782  0.08308410359211367 -0.03000353662285743  0.48424273552057145
 0.02236345401461388 -0.05102005059179698 -0.00178042841575778 -0.00959727453250033  0.07643670618892551 -0.01988827762624533  0.48384987096152150
 0.01579055584253110 -0.03180613039632412 -0.00257299348313171 -0.01226654882984098  0.06837575213614623 -0.00892510756697650  0.48340447229637906
 0.01748559892604151  0.00182687212758994 -0.00301944521301578 -0.01424126831239850  0.05953753791849815  0.00239309063749838  0.48292661391455010
-0.03671595403354169  0.01828838248532727 -0.00047630906370111 -0.01616448386013808  0.05210973094309459  0.01246605280659667  0.48249258072113010
 0.01764418132193379  0.03083212089948397  0.00213496568226231 -0.01782348090798382  0.04458320180506794  0.02239439893919933  0.48205261225877700
-0.00619475183196475  0.01182109412637877  0.00951454137097500 -0.01899540322718532  0.03707409804153283  0.03208179187266350  0.48160762964633790
 0.01590571486941456 -0.01749595577722231  0.01622238675776997 -0.01983683425045079  0.02907423366014737  0.04189475414475002  0.48114470059429940
-0.02009003986188849 -0.00900060218241437  0.00975751392543534 -0.02093638765593504  0.01771799104306057  0.05397348661218146  0.48057803811826916
 0.00567661306745086  0.01044201637670961  0.00111432198239726 -0.02209185911931673  0.00488133503200100  0.06692203143668442  0.47996454122275840
 0.00064719612309964  0.00028506826891545 -0.01812663903941172 -0.02201550266346051 -0.00690891316556867  0.07873345891674434  0.47938533155836910
 0.02586011609558812 -0.01799767483795170 -0.03621456715834797 -0.02165130265177169 -0.01873505077054104  0.09029736480680244  0.47880511451489244
-0.03692054508909299 -0.00287099399186878 -0.02047842875490382 -0.02321413006456834 -0.03250282612168599  0.10328316307128098  0.47815876094949356
-0.01220310123458671  0.02159046984349667  0.00311549740632125 -0.02465468423792281 -0.04569706378439764  0.11559126844266454  0.47753061356306997
 0.04183102393467366  0.00335615812443045  0.04114249878377101 -0.02661679536536216 -0.05974209702747932  0.12824466216493630  0.47687554938367400
 0.00074269199467568 -0.02371702623259446  0.07738601721499283 -0.02771566359765647 -0.07202558408103248  0.13923275879564911  0.47627880590457840
-0.03170770958360065 -0.01143073360071395  0.05745525640466110 -0.02264837498987117 -0.07462718873119085  0.14223143906271790  0.47600031143661625
 0.01494363785630884  0.00556760423812253  0.01999230080529706 -0.01476816227031910 -0.07266322330531186  0.14123673991515784  0.47587310275936895
-0.00864717344148355  0.03277904758374810 -0.02736629618634117 -0.00743467459876941 -0.06853622915475300  0.13866240963156623  0.47581591616468410
 0.03254422147628670  0.06462049300940423 -0.07522805907612654  0.00060653209826653 -0.06233824981507317  0.13414869051982772  0.47582837178604886
-0.04877161035456388 -0.00170267333301868 -0.07756219124191167  0.01075626043218695 -0.05668173228013750  0.12867548436592620  0.47583146241017110
 0.04962234822480987 -0.09098343338160508 -0.06149142336564890  0.02059737539238393 -0.05048852903978898  0.12234327110257212  0.47585539106590720
-0.04247238307314568 -0.05870117974131062 -0.04793171306953268  0.03238689851931195 -0.04293233212492333  0.11426789995843051  0.47592780952984304
 0.00673374625500438  0.00334744701016318 -0.02953718010710785  0.04275953969488120 -0.03471119787644529  0.10556582002148356  0.47602382500071316
 0.01825743103036699  0.03438026540866575 -0.00372621475275379  0.04235317152071412 -0.02637014649272648  0.09899135361304752  0.47611413967141740
 0.00495409996601061  0.05966413789120475  0.02124103320964617  0.03759716652189147 -0.01767086159278395  0.09291006820243261  0.47621335580031970
-0.02059310985929618  0.01908981911349020  0.05868747168503673  0.02968359134242794 -0.00952913655067352  0.08635713451457874  0.47630422975315720
 0.00292114922047582 -0.04191304021466673  0.09257597225245007  0.02014546541070484 -0.00132830968977880  0.07956255509590575  0.47640020792362270
 0.00728590511505979 -0.01922325069058062  0.07814387605402584  0.01632917519114984  0.00877033154410201  0.07214698554275387  0.47654697724219436
 0.00509840854367926  0.02583330990139812  0.04738532972155633  0.01360692078055032  0.01888005678946870  0.06413373136461198  0.47669824289742590
-0.01077197687975961  0.01225725899174964  0.00802679496196908  0.00980063343767831  0.02950021845918054  0.05613919191351543  0.47686587911434530
-0.00792606015014450 -0.01652190925010930 -0.03304567416470836  0.00563328800451457  0.03924829263478503  0.04759625664341682  0.47701580628091420
 0.01678680921766294 -0.00750843072081381 -0.03981075382082844 -0.00354337427746242  0.04351795851509323  0.03715537102697052  0.47703842005805464
 0.01112662101162781  0.01298602432064762 -0.03226268699664433 -0.01624654880894708  0.04516352985637114  0.02586641654803475  0.47700264406759420
-0.02717425983723770 -0.00684150420479043 -0.02967280768021784 -0.01915970875256927  0.04605875614853751  0.01366515342546365  0.47694237089950187
 0.00145365381451847 -0.03746161072240644 -0.02367593370117628 -0.02187522896891984  0.04579919157075911  0.00108566358571583  0.47685626442023027
 0.01932214261429573 -0.00370789942419014 -0.00168849076829935 -0.04821940529335855  0.04476272118005117 -0.01015323494708857  0.47677516663737357
-0.02551228065892788  0.04542562301741690  0.02304891180266964 -0.07623409598313965  0.04327787217584369 -0.02123797921027572  0.47668694885526390
 0.02474022256465904  0.02766574811017029  0.04991717289204636 -0.11036083368547041  0.04060817211960475 -0.03205744201491324  0.47657796001285220
 0.00726805576981611 -0.00786213919154709  0.07441791271694737 -0.13771102257150478  0.03771516824072535 -0.04301439056722439  0.47645941560182820
-0.02768200695267943 -0.01469779046449846  0.06270815987159203 -0.10513452797402024  0.03725720363091757 -0.05643433088505279  0.47634729277274090
-0.00758321873390108 -0.01307635673132230  0.02927939991126425 -0.04437530987109285  0.03759721947425830 -0.07079981930620387  0.47623108525593580
 0.02633061573991999 -0.01670445182023290  0.03450261119249663  0.00321998010888583  0.03756930148566494 -0.08394476291814135  0.47611770621027090
 0.02388678557462639 -0.01823004683050133  0.03264611022670741  0.05703327598621284  0.03749040284196305 -0.09682534733823936  0.47599881953799850
-0.05016204003170169 -0.00135031028366946 -0.05906541299560553  0.15087174404655080  0.03726783400063143 -0.11122732409806813  0.47584750936066840
-0.01582451328112570  0.01310602930299574 -0.15241430805781920  0.24486953119844393  0.03656315852606868 -0.12489590528268588  0.47568700759300975
 0.05126884333128008  0.04189395617121965 -0.34622883455540320  0.35747507705585320  0.03610640623887070 -0.13893830112039200  0.47551385287747940
 0.03109190344603565  0.08174314636031081 -0.51800156304085110  0.45327430958993553  0.03500983193982109 -0.15118531324990970  0.47534068495352366
-0.07939318848761535 -0.01429025657369623 -0.33202820946323230  0.41177498120746914  0.03100098830188135 -0.15482734875627177  0.47521803377030200
 0.02756910933304406 -0.15330434281120750 -0.05185426230638600  0.30804006352623500  0.02569564267053317 -0.15417006194275862  0.47511485152944950
 0.03838256587383154 -0.02937620058007626  0.36087508606721136  0.20699311344722993  0.01918950469109794 -0.15179000625951675  0.47499893675922210
-0.19014278232437900  0.16525145847078160  0.76131014507464690  0.08757658240721740  0.01207592188137546 -0.14731818326201526  0.47488285775152940
 0.25082999962458025  0.05433057508533751  0.65632829631964640 -0.06748015428727205  0.00651910252243833 -0.14185701347347943  0.47478419420793230
 0.04251696192949581 -0.12905546125742510  0.38702762197952730 -0.22180848920555020  0.00102212483751204 -0.13547215262278473  0.47467839433830866
-0.24506792115362960 -0.09479033249242086  0.01733723464882107 -0.40454515589252820 -0.00433491350268680 -0.12722203298974027  0.47457812138111890
 0.07912201453059779 -0.01159380318159904 -0.36871557220788220 -0.56862740388101040 -0.01004401658875230 -0.11828260770348992  0.47445938903106505
 0.05093960092663493  0.04996896799946153 -0.38494684586929484 -0.57187483717755950 -0.01885835394295983 -0.11151595356562269  0.47424242162834950
-0.04526940741166687  0.11116150606307224 -0.27437844470671400 -0.50368552652347350 -0.02898616796641549 -0.10522666409850659  0.47397570464279910
 0.04990596200857419  0.03598333998194576 -0.12828717836897013 -0.42284472293286320 -0.03806097545883704 -0.09844550632586904  0.47370408109509190
-0.03695841536651490 -0.07827392556930471  0.03964803014620045 -0.31756444718332116 -0.04709691290770993 -0.09139173754601787  0.47341040842566307
 0.01749877140265124 -0.04019903017541113  0.06682295639635848 -0.20121039569959320 -0.05782654320971604 -0.08361981982499649  0.47307906110965886
-0.01328216530848491  0.03553842270826292  0.04669278463379280 -0.08435984181124337 -0.06793516493293673 -0.07521013530875958  0.47273810001833760
 0.00871679227023628  0.03113144946147645  0.02956078927754575  0.05766785890888739 -0.07883523897136234 -0.06678027667897790  0.47235662573119010
-0.00769063392874549  0.00896283507452560  0.00414814660632407  0.19206202692629780 -0.08803344047560437 -0.05778988042038930  0.47197694621665726
 0.00899578898803803 -0.01351877163732851 -0.00631360868868685  0.23272935083459162 -0.08807696932353178 -0.04698828030085465  0.47171749012676130
-0.01486129577141421 -0.03591728787831953 -0.01143953698867769  0.23357297054208620 -0.08384610265699653 -0.03536789978345203  0.47149515253566887
 0.01634486776446760 -0.02534781080064228 -0.02464909878186656  0.22105637833050934 -0.07733173329794486 -0.02282134596740520  0.47129374275169040
 0.00235478604264800 -0.00547528764386041 -0.03632230609769915  0.19403488664745650 -0.06887658637702243 -0.00989767318786205  0.47109118061508000
-0.01288452132956356  0.01276741066316063 -0.02849502027909293  0.17626133894176904 -0.06157985592816089  0.00167833445015383  0.47079731348047477
-0.00902784045166962  0.02911942425169483 -0.01450918948627495  0.15818268533063710 -0.05388815692784452  0.01310878772137909  0.47046928956086825
 0.02283853379035867  0.02138505004899087  0.00478671296127203  0.13014504800437218 -0.04516371186140043  0.02426345657975347  0.47010891047548264
-0.00707168915146216  0.00683937499798481  0.02437174554620799  0.09977045863528838 -0.03575198453965637  0.03556916559216081  0.46972792891833830
-0.00577905648402894 -0.00953060510800130  0.02514375386553719  0.07798713139757714 -0.02485108742190739  0.04943016874653159  0.46941769500314360
 0.00940820687215775 -0.02565408181594780  0.01945862443293651  0.05828306364936263 -0.01307362720297058  0.06427802152418424  0.46911779253910174
-0.01190150512711088 -0.01519202726322120  0.01083137859623986  0.04205378093724757 -0.00224486350458896  0.07789982018691925  0.46873541617332470
 0.00720690019138801  0.00214707814776370  0.00100857084876290  0.02654313381135165  0.00860617283171217  0.09126651496516858  0.46831262920264727
-0.00227938672226946  0.00978628992863631  0.00055418321576058  0.00113362821366730  0.02178757863623223  0.10617775748715878  0.46793094923957756
 0.00031058790004961  0.01595775073881440  0.00278056177618030 -0.02485606778531967  0.03469608577961700  0.12034911953431880  0.46748896205505650
 0.00020495231493399  0.00165162836531055  0.00609289993860268 -0.05318112624307309  0.04837409604965530  0.13491191768594932  0.46703663188729600
 0.00674709501369997 -0.01938289095143329  0.00952250832246709 -0.07813063460056721  0.06056539167542691  0.14765719429897237  0.46647633624006274
-0.01041585588531493 -0.00441927023286832  0.00669977598956909 -0.07968751160730494  0.06411137042304996  0.15166235221972602  0.46550413909176990
-0.00222556610172419  0.02027530379492638  0.00186124901583400 -0.07072784411441242  0.06356137185503909  0.15130577505246320  0.46431371049651010
 0.00787851688192602  0.00848371132334113 -0.00297268080982830 -0.05863808255832216  0.06140835086231599  0.14919284464696259  0.46301133965226343
 0.01626913500131361 -0.01301338021573882 -0.00785152378108087 -0.04265820950171696  0.05743359743616984  0.14495926148984084  0.46158811956988890
-0.02791346615201690 -0.00647130975256322 -0.00986859683780635 -0.02704131517637051  0.05324634277694976  0.13975390712784425  0.46011243801265090
-0.01031245137836806  0.00774236100697700 -0.00998525959627861 -0.01141586924373165  0.04851019351147632  0.13361761878021333  0.45857040691841490
 0.03177793702408839 -0.00023363102618212 -0.01239541140067603  0.00766604381748669  0.04229728482848685  0.12559937447803530  0.45692440227750314
 0.00996820298534626 -0.01332102395934364 -0.01383327338878911  0.02619387414754047  0.03562414008530369  0.11687843846615271  0.45521664166254380
-0.03788138123190246 -0.00336319453927983 -0.00726520008800114  0.03592998954453802  0.03056280571953674  0.11030137003287521  0.45353361056099990
 0.01531408365884174  0.01109777579941268  0.00101932016394464  0.04231364708547231  0.02588203713536703  0.10418346144821757  0.45182567470752255
 0.00095126134948509  0.01220762694032514  0.01372277985317555  0.04413252868200064  0.02132743150627639  0.09758081329712617  0.45007755837040360
 0.00378657703155000  0.01060245195702795  0.02573970245645412  0.04413323164610135  0.01675079668209606  0.09069925093142465  0.44828798929413900
-0.00442762024756306 -0.00422145769828816  0.02127609018920522  0.05196147206852212  0.01101559809647137  0.08306420469435497  0.44642271289610275
-0.00285499744821211 -0.02263847572978325  0.01159504053879841  0.05980564459975761  0.00497766724477059  0.07478966900171613  0.44450745179176370
 0.00643177299845791 -0.01102218904359738 -0.00179641064556915  0.06866117705031932 -0.00111914344755594  0.06647528964716908  0.44255150343960710
-0.00057433017839337  0.00898708423746125 -0.01555940222832693  0.07464184154386652 -0.00712289590937042  0.05761366258332571  0.44055903995028883
-0.00382900442988766  0.00744620301906929 -0.01523332806003336  0.06161303642437416 -0.01196974998235524  0.04705375220653471  0.43855509082117167
 0.00291327403858143 -0.00008600276669822 -0.00993493891093573  0.03973356563096396 -0.01614963555021540  0.03572162763862984  0.43652910991857560
-0.00100950427017233  0.00254447263464931 -0.00392944132630436  0.01911508842256380 -0.02085142756591318  0.02348697621203222  0.43446183589206800
-0.00545925795048242  0.00739955098956440  0.00291615896889969 -0.00392512945881014 -0.02528004589140620  0.01089055508045476  0.43236716826073135
 0.00982468514333452  0.00029457102334059  0.00569130248177646 -0.03391987766626214 -0.02776803189296270 -0.00039364234269804  0.43027099325244760
-0.00605823129820197 -0.00935975530829296  0.00646985692669245 -0.06359518658564635 -0.02988623505947936 -0.01153937284285304  0.42815092416678120
 0.00159280423688486 -0.00611106148562898  0.00911141280632476 -0.09787464374011615 -0.03105298255190710 -0.02240939386184430  0.42601686459531230
 0.00394763590009740 -0.00019984477621366  0.01092521456449969 -0.12834287013143264 -0.03238820146188697 -0.03343134032621686  0.42385340623020407
-0.00816984029713381  0.00420895033852463  0.00640900348671645 -0.12941721870282710 -0.03819076478547211 -0.04698092503831018  0.42159579499757990
 0.00517121223892780  0.00943634255146997  0.00015382567929864 -0.11735896410373195 -0.04572492499538972 -0.06150897071188690  0.41928647934041235
-0.00356452547797474 -0.00181997020235523 -0.00831186852142203 -0.10172219319519912 -0.05216927041243076 -0.07484257415419963  0.41697540196270660
 0.01060357013747892 -0.01804410717848922 -0.01650476739021612 -0.08127345224581896 -0.05858300861278897 -0.08793247874629484  0.41464324403526770
-0.01283083054313994 -0.00300281621133236 -0.01569065738403672 -0.06067541946931879 -0.06625227865393770 -0.10253416615971532  0.41225916842063903
-0.00270513417888852  0.01983346840780413 -0.01148855879187383 -0.03985474161375056 -0.07305640969098590 -0.11641404042748340  0.40986741629434890
 0.01152471084999744  0.01166430907145138 -0.00647973669871033 -0.01486796482283479 -0.08078447481841626 -0.13068198412584428  0.40744314054354536
 0.00664538390563104 -0.00446791435134808 -0.00076918661498923  0.00956997771860804 -0.08665547527704165 -0.14317386682751970  0.40503308144585115
-0.01713880755284797 -0.00661940605504291  0.00263628228783877  0.02278911581797030 -0.08279073749393570 -0.14711078980729048  0.40277934280249494
-0.00145043742508498 -0.00489926464886576  0.00503766361032633  0.03146126743190229 -0.07450629069965456 -0.14678017885384062  0.40059224058440460
 0.01399145893903578 -0.00475577607157554  0.00762051755558459  0.03699738789121197 -0.06317986639969420 -0.14473210280844910  0.39842238089308024
-0.00667236144761072 -0.00499345201580493  0.00968019659645552  0.04052722576689809 -0.04984176395114620 -0.14061057221117337  0.39627472726157600
-0.00003071233548732  0.00222585107765310  0.00966286184679029  0.04828060960170609 -0.03944159940196218 -0.13554268228115654  0.39411867149164910
 0.00504342920983637  0.01153584232794095  0.00833867593724585  0.05577513053120203 -0.02890526304198688 -0.12956629899452649  0.39196048402946930
-0.01037480450465531  0.00356554915252471  0.00792295383917101  0.06295214014728866 -0.01795177199581374 -0.12175059451525912  0.38981852787591780
 0.01455204041540429 -0.00894764298272284  0.00692419568706017  0.06822068239928168 -0.00608241983974916 -0.11324891262326790  0.38767305694315490
-0.01465780436925440 -0.00437552015145486  0.00240091881186270  0.06436834580169477  0.01108029505092144 -0.10684357996634346  0.38548234482173166
 0.00202713787004750  0.00384686260426493 -0.00259887901783512  0.05607195283912740  0.03063348902461410 -0.10088790931836326  0.38327134599729380
 0.00708402473827625  0.00531386290314243 -0.01030835953005626  0.04710439366490898  0.04821828834107719 -0.09446053761835140  0.38104832750014056
 0.00135250754980406  0.00671429430604292 -0.01739680549477766  0.03647815681551988  0.06579920781046110 -0.08776177280441474  0.37881441181648000
-0.00530793572900506 -0.00358944856161564 -0.01423530353778478  0.02382463595393726  0.08704682261820063 -0.08032567956283176  0.37658690881820267
-0.00931955567280715 -0.01911075235681874 -0.00788249236794741  0.01094716851306514  0.10727739251225252 -0.07226584309270036  0.37435408246405530
 0.01695335977404227  0.00236474992220188  0.00135521994742939 -0.00394685329453802  0.12914743040957513 -0.06416709004657097  0.37211118328695860
-0.00062024742592280  0.03443953360428847  0.01076910971234871 -0.01799982088845624  0.14781637955066865 -0.05553561542640807  0.36985766087257750
-0.01022850175966476  0.00621988604657515  0.01014089798644830 -0.02336757577941194  0.14872248913797910 -0.04525273283390732  0.36758353720105870
 0.00217487465437748 -0.03695898521977922  0.00625846516945643 -0.02502661525493245  0.14138739141357978 -0.03421911913144420  0.36529298836781365
 0.00570167653556673 -0.02124404905962939  0.00060359158022031 -0.02490313277087842  0.12969544975133687 -0.02230669795660445  0.36299816191904827
-0.01472247162790366  0.00904824820702829 -0.00544901878924583 -0.02328418010182903  0.11430463821772060 -0.01004268539277300  0.36069046948606426
 0.02009506606698087  0.01322719582535048 -0.00501619516936211 -0.02339268060231240  0.10124829898521813  0.00094185941537396  0.35835145547781827
-0.01003396723180462  0.01129188700438185 -0.00256426211937265 -0.02343133934435469  0.08749384819049599  0.01179082324162852  0.35599801025810420
 0.00073190209714782  0.00382778931559089  0.00078773546764898 -0.02258929258522292  0.07179229062868920  0.02237027633886840  0.35362429873634500
 0.00237598984997518 -0.00579377415404933  0.00431383989528542 -0.02113579863082428  0.05480980555034858  0.03309716906327772  0.35124176842505017
-0.00430864288708279 -0.00440040508021258  0.00384473978391897 -0.01803080141234606  0.03498479919651533  0.04628760686683409  0.34889570353143310
-0.00106520368595731 -0.00040888272495788  0.00207822855652309 -0.01382313301429277  0.01350315499481702  0.06043148238173791  0.34655735349119016
 0.00373610956658815  0.00284844274570557 -0.00014824036910618 -0.01065502311586193 -0.00611329772008271  0.07340969932296092  0.34419530956885850
 0.00830187620321563  0.00641213086732651 -0.00248913336265535 -0.00718102578149539 -0.02574255287583331  0.08614980491219970  0.34182190003629830
-0.01444817101757000 -0.00026066480181137 -0.00279953801176833 -0.00011397439277782 -0.04983283006907029  0.10036514809123553  0.33945403020080417
-0.00067252132876635 -0.00945355462053412 -0.00240766096883692  0.00732181196447997 -0.07336704001720856  0.11387669568059097  0.33706626928930533
 0.01124752362689216 -0.00562074912635945 -0.00150261755123156  0.01581801996530610 -0.09838562125987882  0.12776603024454283  0.33467741409975120
-0.00338162542744404  0.00121376852554060 -0.00046758772078787  0.02333518146907164 -0.12051583711972387  0.13992323510779134  0.33225686516456837
-0.00068580074787219  0.00393802623166827 -0.00033298626552276  0.02190804398714716 -0.12591553023899263  0.14373706413577100  0.32971518289681917
-0.00869792320151551  0.00620818498882409 -0.00011663869305116  0.01623941052755606 -0.12340599331630954  0.14338828462946998  0.32711167506406197
 0.01405732409883706 -0.00019191705965208 -0.00172556916651322  0.01210943028451095 -0.11772143019490407  0.14136825479558680  0.32446790724118263
-0.00760247394576656 -0.00927343056476381 -0.00310608158802727  0.00684560308918977 -0.10852519987167826  0.13732615225217170  0.32179043062794310
 0.00260606488128397 -0.00200081822198540  0.00018737795317987 -0.00403572447994790 -0.09914000637887137  0.13235186773651608  0.31912223850889690
-0.00313353865913355  0.00935800910310478  0.00391823639927275 -0.01524185860994995 -0.08874039743418628  0.12649063541399197  0.31643991378598230
 0.00302316923320957  0.00588619547602490  0.01236565447362719 -0.02916644901301170 -0.07558792033602879  0.11883261725811470  0.31373773290714530
 0.00013277422247905 -0.00147995123156080  0.02001493242520232 -0.04119645818968834 -0.06154057900473458  0.11050767943222607  0.31101660234516910
 0.00072595883028201 -0.00287114859811893  0.01251202542479922 -0.03525118562652167 -0.05016452275345189  0.10424954538387897  0.30825432733822670
-0.01681043751607698 -0.00227186190693962  0.00159695146971792 -0.02123453774922483 -0.03936863951956629  0.09843966169482414  0.30546686352637736
 0.02507352309159018 -0.00397184569549424 -0.01753919981015395 -0.00873113489023948 -0.02895301338813348  0.09216559300089588  0.30268307769065610
-0.00467602986745153 -0.00650783360822430 -0.03582816325221610  0.00584230117554686 -0.01853035978160173  0.08562838686644728  0.29988969846663005
-0.01097578054999077  0.00148571412462093 -0.02606797362002890  0.02663482078322228 -0.00579035514029472  0.07838134438657897  0.29705923001503504
 0.00756072483386625  0.01251561247578479 -0.00875269762762873  0.04707253160813127  0.00739861626829841  0.07052397863112427  0.29422623380959410
-0.00412758044574190  0.00434792114413446  0.01856217344466060  0.07190523913923401  0.02075909248399673  0.06263560587972151  0.29137254835320325
-0.00512747940484577 -0.00970634109294227  0.04535156436795009  0.09339668446338631  0.03369584934258372  0.05422072687457931  0.28853299544852856
 0.00675587214999963 -0.00299518375611752  0.03554473683999445  0.08776484439890538  0.04333465612742896  0.04414787142413660  0.28581120281491057
 0.02596433038900941  0.01016112920401511  0.01468460568386258  0.07027565383660557  0.05117883518710150  0.03332281357762845  0.28313963212101084
-0.04646843129003331 -0.00142290428246616 -0.01497901585738415  0.05024347234863781  0.05959476342814728  0.02162918299710728  0.28049393265522920
 0.02104831217712903 -0.01961222246192701 -0.04497489098947923  0.02633093453588754  0.06720981683694888  0.00958550642454854  0.27786754347612763
-0.00081975028919401 -0.00339908986587475 -0.04136994728745542  0.00266282216012931  0.07145359450687051 -0.00119440950531686  0.27521178028008920
 0.00444713581755217  0.02112328293306667 -0.02676977257201468 -0.02024110121218671  0.07490795561743971 -0.01183944076748326  0.27255394018286905
-0.00382626499346969  0.01246026109737409 -0.00619372657498084 -0.04733440560986267  0.07648555686010962 -0.02222170212269525  0.26990328134274816
-0.00724541323165661 -0.00395673372996238  0.01554667102625184 -0.07267224112103615  0.07818219606120938 -0.03274801915848807  0.26725754015288330
 0.01286599123992558 -0.00811700440136675  0.01643882388177987 -0.08324622519040825  0.08747552399662914 -0.04569257084697816  0.26463946131966753
-0.00542617321662598 -0.01024914406690347  0.01102789190852900 -0.08799753484348613  0.09963746350987344 -0.05957254369397778  0.26203504040190284
-0.00201418436234960  0.00083840029694540 -0.00120135466034746 -0.08504611849790228  0.10977177783816741 -0.07230004878802908  0.25940652817293414
 0.00719584452233769  0.01445490823356448 -0.01326483566972294 -0.07902052020312834  0.11974075842441692 -0.08479061934388177  0.25677546403593876
-0.01100926813831611  0.00533968624940625 -0.00927267066367725 -0.08618233391195648  0.13185506846957099 -0.09873941711719086  0.25419093511169133
 0.00912182661134111 -0.00684363548768538 -0.00423315968136982 -0.09388354900807336  0.14241394509225755 -0.11199418108845523  0.25160075356148565
-0.00557453579077889 -0.02461655970502959  0.02932115395172629 -0.10240730969302507  0.15441781646454023 -0.12561985086881566  0.24902428564080895
-0.00168891897373252 -0.03752279229464547  0.06031159204110760 -0.10695329315159235  0.16315200164105415 -0.13753624415260790  0.24641965488975210
 0.00613731828940610 -0.00947265691605797  0.02696893078764267 -0.08329156983415324  0.15505199279674170 -0.14122088380187510  0.24364486867769708
-0.00006584943106156  0.01401069751448689 -0.00956092924116462 -0.04575831439440972  0.13920064272735583 -0.14079754212966453  0.24078929495394988
-0.00655050288302624  0.09775288030902923 -0.12978885070046653 -0.01616180354771502  0.11846805617332860 -0.13873067204491024  0.23791989269330793
 0.00633107987437664  0.19661915745367660 -0.23942935001621474  0.01646085482166309  0.09421244709538595 -0.13466878224236440  0.23501959301303926
-0.01505148447151189  0.00386362440039636 -0.09874135460530815  0.07325357058574583  0.07389847823098528 -0.12967329513327172  0.23208646099247085
 0.07708981194705071 -0.24712559770898912  0.09031855072475559  0.13064740292352023  0.05318031423588247 -0.12380124555850315  0.22914576343570983
-0.08925309089903877 -0.21633301717096262  0.42010162763004905  0.19796926780615562  0.03131270729607374 -0.11615197014159952  0.22617247547883576
-0.09085461683534535 -0.12041881984957434  0.72796164504527690  0.25591242667828800  0.00804065003188759 -0.10784777632226808  0.22320649125144054
 0.20071956316283410  0.09361147735798701  0.51220831138502090  0.23690144392677980 -0.02182631341380167 -0.10161590659399075  0.22036542417494430
-0.03587440430356006  0.34021136731170390  0.14428459652420408  0.18259750006936482 -0.05477512427601789 -0.09584073385891890  0.21757879853298293
-0.07811247183232052  0.16295200835196677 -0.36191147373036947  0.13189499395327045 -0.08478435662160233 -0.08960163993670077  0.21478993981532965
-0.00776359564634062 -0.13327778224132550 -0.86336235903529390  0.07085407299072537 -0.11468172420657040 -0.08310532828713622  0.21201871642541475
