-0.13315628243241912
0.006023425049658679
-0.024684454906875826
-0.022479728320909213
0.005619932080227319
6.938893903907228E-18
6.938893903907228E-18
-0.00782465866619391
-0.014251576685283932
0.0030117125248293464
-0.004114075817812632
0.008228151635625285
0.0030117125248293464
2.7755575615628914E-17
0.016859796240681943
-0.02508794787630711
-0.003011712524829291
0.00822815163562532
-0.009734007898039965
-0.00411407581781259
-0.0138480837158525
-0.006722295373210535
-0.016859796240681846
0.008228151635625292
0.020973872058494603
-0.02619031116929041
0.010137500867471352
-0.03070787995653443
-0.0067222953732105906
0.004114075817812646
-0.004517568787243978
0.02468445490687586
0.029202023694119852
-0.003307089878949912
-0.03412308545079515
0.02097387205849459
0.0041140758178126735
-0.005619932080227263
0.010137500867471325
-0.01946801579607986
-0.008228151635625264
-0.011239864160454582
0.005216439110795973
0.022479728320909248
0.011239864160454652
-0.033719592481363775
-0.003307089878949898
-0.001210478908294066
0.030412502602413904
-0.08459435855753013
0.022479728320909234
0.016859796240681957
-0.06292161617548363
0.03371959248136387
-0.0030117125248293047
-0.0015058562624146177
-0.010836371191023236
0.005216439110795945
-0.002204726585966571
0.0012104789082940937
-0.12374662138031142
-0.06584128369366554
0.30832413021647576
-0.10884709672297566
-0.010245616482781994
0.013552706361732003
-0.013552706361731892
0.09182826251548293
0.025786818199859132
0.006023425049658679
0.011239864160454638
-0.0647228497920189
0.0022047265859666265
0.04305010740997243
-0.011347979775765363
0.04727229884309583
0.02589493381516991
-0.1077729572019913
0.048158430905457614
-0.013552706361731948
0.0014999740113896542
0.0461918884098009
0.016068880910482516
0.003307089878949933
0.03823716126860782
-0.0075292813120732965
0.01575743294769863
-0.025894933815169885
0.05057938872204576
-0.02508794787630711
-0.013552706361731892
0.007529281312073366
0.005216439110795945
0.0029035969095186076
0.05961452629653377
-0.037026682360313784
0.0033070898789499814
-0.01685979624068193
0.030412502602413904
-0.018070275148975953
0.041544251147557776
0.012342227453437937
0.025491440845738567
-0.03250911357306972
-0.04455596367238704
0.034713840159036405
0.029202023694119866
-0.04154425114755772
0.07647432253721567
-0.10115877744409148
0.03632781203676182
0.01796215953366523
-0.0201668861196318
0.025894933815169906
-0.12132566356372325
0.0030117125248293602
-0.0022047265859665988
-0.015353939978267235
-0.0023128422012773722
0.013552706361732003
-0.041963814725652436
0.036737187257218216
-0.011261817020142992
-0.01946801579607988
-0.009734007898039937
0.007824658666193939
0.027696167431705172
0.014251576685283929
-0.04154425114755775
0.0045175687872440196
0.016859796240681943
-0.13881106625548312
0.0832475402619263
0.2712786667219887
-0.39008815573696143
-0.0842989812034095
0.013552706361732059
0.009035137574488039
0.02849296501292961
-0.019506039264431608
-0.016859796240681915
0.040038394885143075
-0.010029385252160537
-0.06292161617548367
0.030009009632982545
-0.038237161268607836
0.015353939978267242
0.014251576685283929
-0.0662287060544336
0.015649317332387835
0.047567676197216406
0.0030117125248293325
-0.021780857997357288
0.034123085450795176
0.007824658666193918
0.019877391016536298
-0.011261817020142992
-0.01645630327125055
0.012342227453437923
-0.004517568787243964
0.01384808371585261
-0.016456303271250555
-0.0179621595336652
-0.021377365027925865
0.02920202369411988
0.02769616743170518
-0.023582091613892506
0.011239864160454617
-0.006029307300683719
0.043481435490117216
-0.01648844448857722
-0.021011895526846274
0.004114075817812638
0.01645630327125055
0.00712578834264197
-0.017962159533665225
0.007824658666193918
0.029911082375310052
0.017285242069801657
0.006722295373210611
-0.016859796240681922
0.030707879956534487
0.006722295373210608
-0.0015058562624146671
0.01537001058693058
-0.015370010586930579
-0.0022047265859666204
-0.021377365027925917
0.017263289210113268
-0.03371959248136383
0.0
0.021377365027925907
-0.02016688611963187
-0.012342227453437923
-0.05388647860099567
-0.012342227453437923
-0.021666860131021447
-0.044190494171307444
-0.01533786936960392
0.0027061468130704655
-0.05853411586323881
0.009035137574487997
-0.052209431208434506
-0.09553884536386423
0.47380226448315477
-0.0817416839995117
-0.14843107628718727
1.1102230246251565E-16
0.03572098671985732
0.027702049682730212
-0.07460299677372136
0.11019391501857947
-0.12132566356372335
-0.027991544785825787
-0.02016688611963191
-0.028099660401136567
-0.013444590746421237
0.01234222745343791
-0.038237161268607864
0.03944764017690189
-0.07607082956778433
0.006023425049658665
-0.030304386987103152
0.015649317332387808
0.0460618199348017
0.01234222745343791
0.02137736502792588
0.020586449697726522
-0.06242019594837982
0.023048530169462015
-0.01123986416045461
-0.03250911357306974
0.030412502602413925
-0.06413209508377772
-0.05761313205804025
0.030412502602413898
-0.046868805873664474
-0.006614179757899869
-0.01564931733238789
-0.04987033004085554
-0.04714223036809667
0.007529281312073324
6.988703235518978E-4
0.09002702889894765
-0.13729932774204348
0.10417048996892082
0.030304386987103082
-0.05087476607616635
0.11008579940326865
-0.14843107628718732
0.12374662138031142
-0.01807027514897605
-0.049368909813751694
0.003307089878949898
-0.024684454906875833
0.06743918496272758
0.024684454906875763
-0.046868805873664474
-0.009035137574487997
0.06082500520482778
-0.11019391501857956
0.07437771156655967
-0.0731672326582658
0.02258784393621993
-0.08139538429389104
0.027105412723463965
0.024684454906875847
-0.031111372925965858
-0.015757432947698616
0.009035137574487997
0.01083637119102318
-0.20793748696841027
0.3683362672314158
-0.10047280600368802
-0.06743918496272763
-0.04727229884309578
0.004098005209149325
0.11019391501857949
-0.040038394885143075
-0.016456303271250583
-0.050471273106735076
-0.011131748545143982
-0.0596145262965338
-0.031003257310655147
0.003415205494260609
-0.0674391849627278
0.07405336472062746
0.028798530724688465
0.051789867630339714
-0.04969325665968394
0.09182826251548279
0.048374662136078994
-0.06082500520482792
0.02468445490687579
0.17190505228576908
-0.07316723265826572
0.07316723265826564
0.01895640721133779
-4.034929694313599E-4
0.006023425049658637
-0.01054099383690267
0.030412502602413835
0.011131748545143816
-0.050579388722045766
0.05961452629653374
-0.009035137574488011
0.007824658666193918
0.012342227453437854
0.04455596367238707
0.022479728320909165
-0.009035137574488039
0.0012104789082940381
-0.06743918496272772
0.0764743225372157
-0.09362949613201821
-0.0022047265859666543
-0.03702668236031381
-0.012342227453437937
-0.024684454906875902
-0.008228151635625292
-0.05057938872204579
0.05057938872204565
-0.024684454906875875
-0.011131748545143871
-0.07526384362892163
-0.07526384362892166
0.02589493381516994
-0.014251576685283929
0.010540993836902712
-0.010540993836902712
0.014655069654715192
-0.03412308545079526
0.019468015796079846
0.034821955774347074
-0.03823716126860785
0.030412502602413877
-0.04606181993480182
0.0337195924813638
-0.14031104026687286
0.11812668930008413
0.42561486408588534
-0.33993421284403547
-0.07537195924423229
0.06321111127857923
0.04498140950150682
0.038237161268607794
0.024684454906875763
0.019468015796079763
-0.011239864160454749
0.0307078799565344
-0.004114075817812701
-0.01796215953366531
-0.002608219555398028
-0.0015058562624147842
-0.012342227453437993
0.00863164460505661
-0.033719592481363914
0.03371959248136375
-0.04003839488514316
-0.0011023632929832994
-0.004517568787244075
0.008631644605056554
-1.1102230246251565E-16
-2.7755575615628914E-17
0.012342227453437826
-5.551115123125783E-17
-0.012342227453437923
-0.011239864160454624
-0.0194680157960799
0.011239864160454568
-0.022479728320909234
0.012342227453437896
0.00451756878724395
-0.010836371191023292
-0.0194680157960799
0.005619932080227236
-0.009035137574488067
0.025894933815169857
-0.0060234250496587205
0.0011023632929832439
0.029202023694119783
0.005619932080227263
-0.005619932080227347
0.004517568787243964
-0.018365652503096602
0.009734007898039854
0.002608219555397917
0.0164563032712505
0.005619932080227263
0.004114075817812618
-4.0349296943140156E-4
0.024684454906875847
-0.01234222745343791
0.004517568787243964
0.022184350966788585
-0.05880754035767102
-0.01645630327125061
-0.004517568787244047
0.012342227453437896
4.0349296943133217E-4
-0.015353939978267284
-0.011239864160454624
0.010137500867471269
-0.016456303271250597
-0.07316723265826575
-0.06993928890281491
0.3782634191192905
-0.10432952793573164
-0.0641320950837776
0.03702668236031381
0.054677393931195084
0.04124887379343714
0.005619932080227277
-0.00411407581781266
-0.005619932080227333
-0.0022047265859666543
-0.0194680157960799
-0.007125788342641992
0.0015058562624146177
4.034929694313183E-4
-0.03371959248136383
0.02920202369411981
0.005619932080227291
-0.016456303271250625
-0.005619932080227347
0.0015058562624146454
0.0067222953732105906
0.010836371191023209
0.022479728320909192
-4.163336342344337E-17
-2.0816681711721685E-17
0.00824422224428861
-0.02247972832090922
0.019468015796079898
-0.0030117125248293256
-0.0030117125248293186
0.008228151635625285
0.012326156844774588
0.011239864160454603
-6.938893903907228E-18
-0.008228151635625292
0.0011023632929832924
0.015353939978267214
0.005619932080227291
-1.3877787807814457E-17
-1.3877787807814457E-17
-0.0015058562624146732
0.006023425049658651
-0.024684454906875875
-0.024684454906875875
-0.020973872058494603
-0.004517568787244006
0.029202023694119825
-0.012342227453437923
-0.016859796240681915
0.012342227453437868
0.0
0.050579388722045676
-0.016859796240681957
-0.012342227453437937
-0.01535393997826727
0.006722295373210618
0.004114075817812625
0.0015058562624146593
-0.01123986416045462
0.010137500867471297
-0.02247972832090923
-0.007529281312073338
-0.10989853766445892
0.18438436484632928
0.17573982135812427
-0.4361499756717631
-0.03702668236031359
0.0
-0.016364258264603096
0.013444590746421209
-2.0816681711721685E-17
0.015353939978267228
0.013444590746421195
0.011239864160454582
0.0015058562624146593
-0.0045175687872440196
0.016859796240681874
-0.0041140758178126735
-0.001505856262414701
0.005619932080227236
-0.008631644605056693
0.021377365027925865
-0.029202023694119894
0.012342227453437854
4.034929694313183E-4
-0.024684454906875847
0.004517568787243992
-0.02137736502792592
0.021377365027925907
-0.01987150876551126
-0.009734007898039946
0.007824658666193918
0.024684454906875833
0.011239864160454603
-0.003011712524829336
0.020973872058494554
-0.016859796240681936
0.003011712524829291
-0.0030117125248293464
0.02468445490687582
0.027696167431705138
-0.005216439110795973
-0.0041140758178126735
-0.013444590746421264
-0.02137736502792592
0.024684454906875805
0.029202023694119797
-0.001505856262414687
-0.0030117125248293325
-0.0033070898789499814
-0.041544251147557804
0.021377365027925893
-0.016859796240681985
-0.019468015796079916
-0.007125788342641978
0.03181024324951777
-0.01344459074642125
-0.01946801579607993
-0.016456303271250583
-0.005619932080227333
0.007824658666193904
0.024684454906875833
-0.12675833390514085
0.13619696444906004
0.35817567912315773
-0.30591924300855095
-0.0876060710823594
-0.0370266823603137
0.004098005209149297
0.055096957509289744
-0.0041140758178126735
-0.010836371191023292
-0.017962159533665284
0.0
-4.0349296943134605E-4
0.016859796240681874
-0.012342227453437993
0.00782465866619389
0.009035137574487984
-0.02920202369411984
0.0026082195553978893
0.0041140758178125625
0.0011023632929832716
0.02468445490687579
0.043050107409972366
0.0022047265859665988
0.0337195924813638
-0.0030117125248293464
0.011239864160454555
0.016859796240681874
-0.05057938872204576
0.02137736502792588
-0.02247972832090922
-0.006722295373210632
0.004114075817812604
-0.013848083715852583
-0.0030117125248293602
0.01726328921011326
-0.02549144084573858
0.019468015796079846
-0.005216439110795973
0.005216439110795945
0.004114075817812618
0.00411407581781259
0.0023128422012773653
-0.033719592481363886
-0.001505856262414701
0.007125788342641937
-0.0056199320802273744
0.005619932080227263
-0.01796215953366523
0.016859796240681874
-0.03070787995653454
0.006023425049658637
-0.027696167431705193
-0.009734007898039965
-0.01685979624068197
0.008228151635625264
0.01726328921011322
0.012342227453437882
-0.004517568787243992
-2.7755575615628914E-17
0.016859796240681887
-0.016456303271250597
-0.01535393997826727
-0.004114075817812646
-0.010137500867471325
0.02097387205849454
0.002608219555397945
-0.13799819806559543
0.1226442580873281
0.40875506784520355
-0.23146238531849206
-0.11801857368477331
0.013552706361732114
0.013133142783637322
0.019871508765511237
-2.7755575615628914E-17
0.008228151635625264
-1.3877787807814457E-17
0.006023425049658637
-0.021377365027925935
0.015353939978267228
0.005619932080227277
-0.00411407581781266
-0.010836371191023278
-0.005619932080227319
0.010836371191023236
0.003011712524829291
-0.005619932080227347
-0.004517568787244006
0.03371959248136379
-0.01274572042286927
0.016859796240681887
0.0
-0.0014999740113896196
0.005597979220538918
-0.004517568787243999
0.010836371191023264
-0.0030117125248293186
0.03250911357306978
0.0250879478763072
0.016859796240681922
-4.0349296943135646E-4
0.011633168772247696
-0.021011895526846274
-0.005216439110795953
-0.005619932080227312
-0.004114075817812646
-6.938893903907228E-18
0.004517568787243988
-0.02920202369411984
0.012342227453437913
0.004114075817812637
-0.004114075817812641
-3.469446951953614E-18
-0.001505856262414668
0.017968041784690275
-2.1952859688387907E-5
0.00411407581781264
0.0015058562624146662
-0.00411407581781264
-0.013444590746421226
-0.036737187257218216
0.02360404447358091
0.004517568787243981
0.0026082195553979587
0.018769145472527927
-0.018359770252071535
-0.006744248232899003
-0.011239864160454603
0.002204726585966623
0.027696167431705172
-0.0022047265859665988
-0.016859796240681905
0.0026082195553979795
-0.01425745893630899
-0.1154965168849978
0.18438436484632936
0.17573982135812444
-0.3867810658580114
-0.03702668236031359
-0.05057938872204565
0.07015552013343643
-0.005619932080227298
-0.013848083715852572
0.0030117125248293325
-0.004523451038269053
0.01648844448857722
0.005641884939915694
0.0056199320802273025
0.004114075817812637
-0.007824658666193925
-0.02920202369411984
-0.007824658666193928
-0.025491440845738556
0.02920202369411982
0.0015058562624146558
-6.938893903907228E-18
0.00413014642647597
1.0333801956502464E-18
0.02358209161389253
0.0
1.3877787807814457E-17
2.7755575615628914E-17
-0.012745720422869283
5.551115123125783E-17
-0.0015058562624146177
0.0
-0.011239864160454555
0.015353939978267284
0.0011023632929833271
0.012342227453437923
0.01685979624068193
-0.004114075817812632
0.0026082195553980003
-0.0052164391107959035
-0.005619932080227305
0.0015058562624146732
-0.0011023632929832855
-0.018365652503096574
0.007125788342641978
0.0022047265859666404
0.027696167431705193
1.3877787807814457E-17
0.011239864160454624
-0.004114075817812632
-0.005619932080227291
-0.0026082195553979587
-0.019468015796079874
-0.011239864160454596
0.012745720422869283
0.008631644605056644
0.027991544785825773
0.018365652503096602
0.006722295373210646
0.004517568787244047
-0.014251576685283929
0.00712578834264202
8.326672684688674E-17
-0.019468015796079846
-0.002204726585966571
-0.0972668151079254
0.05313041501363304
0.3836773083265346
-0.24609550211351897
-0.047272298843095806
0.03702668236031381
0.05057938872204587
0.053591101246875106
-0.0030117125248293186
0.01946801579607993
0.001505856262414687
-0.0026082195553979587
-0.011239864160454596
2.7755575615628914E-17
0.005619932080227319
-0.010836371191023236
0.0030117125248293464
-0.03070787995653447
0.001505856262414701
-0.0015058562624146593
0.005619932080227319
0.0015058562624146801
0.008228151635625278
0.008228151635625305
0.0030117125248293602
2.7755575615628914E-17
-2.7755575615628914E-17
0.009330514928608646
0.006722295373210646
0.0056199320802273744
-0.017962159533665145
-0.008631644605056554
0.027696167431705193
-0.01123986416045461
0.004517568787243992
-0.012342227453437826
-0.005619932080227263
-0.0022047265859665155
-0.01836565250309652
0.0041140758178126735
0.010137500867471366
-0.027696167431705193
-0.009734007898039937
0.0041140758178126735
0.004517568787244047
-0.02549144084573854
0.030707879956534595
-0.010137500867471255
0.030707879956534567
-0.005619932080227263
-0.00411407581781259
-0.0015058562624146177
0.008228151635625292
-0.006722295373210618
-0.016859796240681874
0.015353939978267284
0.006023425049658693
0.016859796240681957
-0.03522544874377842
0.010137500867471338
-0.0037105828483812164
-0.05057938872204573
0.029202023694119866
-0.00150585626241459
0.013444590746421264
0.015353939978267311
-0.03011712524829324
-0.06584128369366551
0.3782634191192906
-1.1515095122461088
0.9665915859553487
0.037026682360314034
0.03702668236031392
0.11651271742235875
2.7755575615628914E-17
0.004114075817812729
-0.00521643911079589
-0.0060234250496586095
0.019468015796079985
0.008228151635625375
0.009734007898040048
-0.01234222745343791
-0.0015058562624146454
0.006023425049658665
-0.027696167431705165
-0.005619932080227319
0.004114075817812646
0.001505856262414701
0.0022047265859666265
0.029202023694119894
0.008631644605056665
0.004517568787244075
-0.019871508765511137
0.011239864160454693
-0.0030117125248292353
-0.0015058562624145622
-4.034929694313183E-4
0.003011712524829402
-0.006722295373210507
-0.004114075817812535
-0.012342227453437826
-0.010836371191023209
-0.0030117125248292076
0.004114075817812701
-0.0030117125248293186
0.01726328921011333
-0.022479728320909165
0.010137500867471338
-0.021377365027925865
0.022479728320909276
-0.010137500867471255
0.025491440845738594
-0.012342227453437882
-0.04305010740997231
0.014251576685284012
-0.02097387205849452
0.005619932080227347
-0.022479728320909192
0.024684454906875847
0.004517568787243992
-0.016859796240681846
0.01726328921011333
-0.027696167431705193
0.023582091613892547
-0.0168597962406819
0.012342227453437965
0.013848083715852638
-0.013444590746421098
-0.015353939978267173
-0.017962159533665173
-0.004517568787243936
0.021377365027925976
-0.0972668151079254
0.033554283602242385
0.3276840303972449
-0.4762760247521541
2.4018789929992783
0.03702668236031381
0.022587843936220042
1.1102230246251565E-16
0.025894933815169968
-0.01946801579607982
-0.030304386987103082
0.007824658666193945
0.015353939978267311
0.005619932080227291
0.007824658666193918
0.00822815163562532
0.009035137574488039
-0.016456303271250514
-0.033719592481363816
0.014251576685283943
-0.005619932080227305
0.004114075817812646
0.013848083715852597
0.00341520549426072
-0.019871508765511164
0.008228151635625347
0.006722295373210646
0.026190311169290575
0.011239864160454582
-0.016456303271250472
-0.03371959248136375
0.006023425049658748
-0.005216439110795945
-0.0337195924813638
0.0
0.01685979624068193
-0.004517568787243964
0.019468015796079957
-0.006722295373210507
0.005619932080227347
0.002204726585966682
0.004517568787244047
-0.002608219555397945
0.01123986416045461
-0.043050107409972366
0.006023425049658776
-0.009035137574487956
0.020973872058494603
0.001505856262414701
-0.00411407581781259
-0.016456303271250444
-0.004114075817812618
-0.011239864160454527
0.008228151635625347
-0.011239864160454555
0.004517568787244047
0.00782465866619396
0.021780857997357295
-0.01987150876551118
0.003011712524829374
-0.016456303271250472
-0.011239864160454582
-0.0023128422012773653
0.031111372925965913
-0.003011712524829291
0.010137500867471366
-0.02920202369411981
-0.1421181561344331
0.15318682916474125
0.27127866672198864
-0.992774134772703
-1.4892820012602357
2.220446049250313E-16
0.06864966387102178
-0.013848083715852583
0.004114075817812618
0.013444590746421292
0.02016688611963191
0.031111372925965886
0.003011712524829388
-0.018365652503096574
-0.011239864160454555
-0.003307089878949898
-0.018365652503096574
0.004114075817812646
0.011239864160454638
-0.0071257883426419505
0.008228151635625292
0.01796215953366523
0.013848083715852583
-0.0015058562624146177
0.016859796240681943
0.004517568787244075
-0.007529281312073255
-0.0011023632929832161
-0.004517568787243964
0.004114075817812701
-0.01685979624068179
0.004517568787244131
-0.004517568787243936
0.004517568787244103
-0.016859796240681874
0.012342227453437937
0.029202023694119894
-0.012342227453437882
-0.005619932080227291
0.005619932080227291
0.020166886119631855
0.004517568787244075
0.015649317332387863
0.019871508765511303
0.019468015796079943
-0.0015058562624146732
4.0349296943140156E-4
-0.02097387205849449
-0.013848083715852555
0.011239864160454638
-0.009734007898039965
0.005619932080227347
-0.019468015796079846
0.005619932080227347
-0.016859796240681874
0.016456303271250597
0.009035137574488011
0.01685979624068193
-0.03632781203676176
-0.00973400789803991
0.01685979624068193
-0.012745720422869256
-0.0041140758178125625
-0.002608219555397917
-0.007125788342641937
0.01645630327125061
-0.021888973612668006
-0.09144084015471482
0.6028546594553997
-0.21899008939005501
-0.1484310762871872
0.013552706361732114
-0.037026682360313756
0.05880754035767105
0.016456303271250555
0.011239864160454638
0.006023425049658693
-0.02247972832090918
-0.011239864160454568
0.02097387205849459
1.3877787807814457E-17
-4.0349296943134605E-4
0.02468445490687586
0.0045175687872440196
0.007824658666193939
0.02468445490687584
0.016859796240681922
2.0816681711721685E-17
0.00411407581781266
0.012342227453437923
0.016859796240681957
-0.011239864160454596
0.011239864160454652
0.012342227453437937
-0.015353939978267228
0.002204726585966682
0.029202023694119866
-0.18413140952311108
0.026244276276398887
-0.010129602349291278
-0.004506292671059356
0.02616782699166048
0.02689509971893323
-9.22144867222599E-4
0.023102088584988842
-0.015648480362469352
-0.03308903462685697
-0.01797295485171041
-0.0024671307966639966
0.01666106570458814
0.042049404136448976
-0.01531095191509646
-0.013129133733278231
0.009155241649541762
0.022830767160300636
0.0191421876914101
0.01453146335529687
-0.016427968922268915
-0.002129602349291243
0.03197201761968463
-0.018752443411510195
-0.08912725926922621
0.08487829683269754
-0.09126710388057135
0.03260884987206125
-0.02082982992827445
-0.024661065704588037
-0.19864640093417257
0.8767460890590602
-1.1174675237812335
0.1089062792130131
0.19215939190342665
0.042439148416348826
0.08402235898815952
-0.05812585342118727
0.180523028267063
0.10565591092844527
-0.0975654798407502
0.20178972877429455
-0.01662492075201312
-0.04144055426438764
-0.006169701455712329
-0.06443821118432269
0.06832166279316332
-0.02196083812560473
0.026296492108925845
0.06424333904437285
-0.08882795546422251
0.017920739019183757
0.0350377560263562
-0.13252677719516684
0.15084750275630424
-0.04410255720100183
-0.02150488682302039
-0.12527828337465108
0.048984602961803334
-0.0316867050048386
0.05557734335369859
0.036733159771196816
-0.010749602502419298
-0.006882982992827441
-0.031192529059884927
0.013916023646040845
0.0420934573967162
-0.5878072957118783
0.01705455891259189
0.1414436413084913
-0.018501196059444922
-0.048556634039534294
0.02619206044387197
-0.0454526709904935
-0.05764566866639147
-0.01784428973444528
-0.03085500061251205
0.09502473128123742
0.012849502936614098
0.044091406919935044
-0.02650535543903329
-0.01259673314595533
0.009155241649541734
-0.05430860883503144
0.011430331828145901
0.005443960554234097
0.003786020232466005
-0.019142187691410004
0.0261205317580187
-0.031719830726537
-0.05038977349291278
0.017440554264387752
0.007714696772355015
-0.0038058715625911756
-0.02593473020934138
-0.02969975896297032
0.0383748158577161
-0.06802235898815955
-0.014097255363645134
0.018433836140381153
0.009057622564180634
-0.11876574119559816
0.9575589225716143
-1.1693854511043396
0.1704024871218433
-0.12752631796635494
-0.038731657158415395
0.13077292793561773
-0.03260884987206128
-0.0903971748458757
0.059712812921101976
0.025402329622018466
-0.024285312614846066
0.03740821666594263
-0.0900044113350993
-0.2615309157527943
0.16597757372160848
-0.243865984529548
0.028494381170695884
0.1883852925585251
-0.2126326032734998
0.09585075385538207
-0.03915055548941185
0.1785118487729832
0.19981811452794976
0.014075512052712388
-0.24115798605538766
-0.09548808393678473
0.08956547045354896
-0.12231697663303334
0.06327272727272726
0.22140694849191628
0.009976703779814439
0.26876636731143577
-0.09960463232794434
-0.008027982380315463
0.6758117502653036
-1.058668693155095
-0.09021007360110289
0.1220999507306661
-0.0319198017871577
0.009012585342118518
0.11759157836981254
0.038165952527608404
0.06403447571426513
-0.21349738896681247
-0.06051653493311315
0.26538733390960295
-0.06833565398332109
-0.2430022757898329
0.023947784167472994
0.09248855255279767
0.08212585342118725
-0.08387970268073658
0.07039904930992746
-0.01777808271176068
0.03666294016863991
-0.01897154900367176
0.02336316774762326
-0.011531931971310028
-0.06515149272143778
0.02442796892226884
-0.011337059831360075
0.06172399241518173
-0.003598138993994471
-0.06145267099049356
-0.03498554019382921
-0.07382654961618362
0.07211467392710752
-0.2766059708857514
1.0567195150973376
-0.7440429316743007
0.03111039795696477
0.11477008702652669
-0.013557102655547215
-0.0016494175944953282
0.015310951915096349
-0.02553099473928394
-0.020387869815847892
-0.021115142543120635
0.024128665117265302
0.03353099473928378
0.016713281537114988
-0.02373892083736545
-0.04045220237448052
-0.026400923773979623
-0.004506292671059453
0.0016494175944953005
-0.016466193564638354
0.07534730209341362
0.022141719075396915
-0.007168295607673514
0.0034937073289406095
0.008869929034695634
-0.014583679187823828
-0.009155241649541818
-0.056633083324272804
0.09431885109708521
-0.06997108038765859
-0.020934261593328368
0.01066200293661404
0.012206988866055618
-0.20828805702069186
0.9740892434691426
-1.1609574821820705
0.07736470188247413
0.10721696773783862
-0.006635895020350668
0.029751974795497155
-0.01060978710408722
-0.01031048329908349
0.006103494433027795
0.01623309678231899
0.024128665117265274
0.012206988866055618
0.001072562682621625
-0.052154234556729934
-0.012596733145955427
-0.009163003157517766
0.0016246456654850604
-0.012064332558632672
-5.846164198497483E-4
0.004311420531109458
-0.0033892756638868454
0.00814265630742296
0.0019869460418682205
0.009103025817014776
-0.01234964517347871
0.0055328692033357885
0.01511607977514648
-0.0028046592440371387
-0.019089971858883115
-0.00605127860050092
-0.0033892756638868246
-0.2597742664934247
1.0710396343684492
-0.6315021457722206
0.035976363450613225
-0.045217494518380155
0.020687173620851512
0.014973423467723512
-0.0065454545454545765
0.001259673314595533
-0.007648480362469429
0.01362330967823186
-0.01589556833494632
0.050672245198667865
-0.014545454545454584
-0.061971080387658604
-0.02093426159332837
0.006935198825354358
-0.02189463110292022
0.028154773033528674
0.0017398580693914756
0.025050809984487887
0.012701164811009136
0.012206988866055646
-0.031296960724938816
0.042700227578983174
0.01923262816630611
8.317043923264933E-4
-0.04069929034695735
-0.021804190628024134
0.0055710938457049775
-0.29811085770877166
1.088848180214603
-0.8433211858359386
0.10672693239807152
0.08532233663491841
0.006350582405504596
-0.0028568750765639306
0.006013053958131537
-0.03576502875362905
0.00227225865671421
-0.002467130796664274
0.03410161996897587
-0.0031561788815678282
8.699290346956268E-4
-0.07906011501451579
0.014688110852877509
0.029167358375647462
0.002961306741617764
0.015610255720100136
0.005818181818181806
-0.032466193564638174
0.009103025817014776
-0.040946378319434235
0.010662002936614151
-0.013414446348124276
-0.03449136424887572
0.0065454545454544655
-0.027323068641202264
0.04302376483619841
-0.042206051634029684
0.028245213508424766
-0.005376221705755108
-0.011622372446205911
-0.05419393490792393
0.15975200400850992
-0.2336986960146865
-0.03928414120556234
0.11939710498508982
0.008570625229692028
0.013804190628024043
-0.027622372446205953
-0.006493238712927618
0.02829742934095164
-0.023791136669892465
-0.009297897956964785
0.01648018475479593
0.01982008549524672
-0.0036306818181818246
-0.03173607992827454
0.01531095191509646
0.03605034136847494
-0.02226167375640292
-0.01463173564076219
-0.01119440352393693
0.005324005873228184
0.020297429340951745
-0.014193934907923927
0.0029119318181818135
-0.012591051327773647
-0.0027113778600500885
-0.020599574055046376
-0.020070014376814466
0.045254957941452637
0.03373986745659245
0.007052490919054994
-0.02093426159332839
0.02941444634812431
-0.11030861822223248
0.33284795993755717
-0.7062137463747684
0.0403412773754771
0.2178852587826604
0.018892258809842286
-0.01536108805782914
0.018045614299074704
-0.01967458827873283
-0.006935198825354361
0.0022200428241873696
0.011539693479285879
0.004336192460119757
-0.008480184754795908
-0.00615571026555467
-0.026648011746456257
-0.018752443411510056
0.017245682124437806
-0.010804659244037063
0.012986477425855333
-0.02107691790075135
1.4265630742303637E-4
-0.004986477425855271
0.021324005873228205
-0.010362699131610364
0.004311420531109472
-0.014441022880400667
-0.015791136669892375
0.06536035605154547
-0.099138438763306
-0.017739858069391434
-0.021661534320601
-0.03686805457064371
-0.206572441790713
1.2205381540967728
-0.9474750333336992
0.0755943900658903
0.07359345283386462
0.003973892083736608
-0.0035841478038366736
0.008090440474896127
0.0314396170323618
-0.0059608381256047865
-9.221448672226129E-4
0.027712812921102045
-0.0025193466291910938
0.004116548391159491
-0.04016688975963445
-0.027323068641202097
0.009972954851710736
-0.0032466193564637535
0.0075580398875733645
0.028154773033528813
0.012739389453378436
-0.001259673314595533
8.177132021689182E-4
0.0012978979569647775
0.005661534320601291
-0.016570625229691938
-0.004896036950959054
-0.0018825143768143315
0.041089034626857174
-0.05450348097498128
0.03415383580150294
-0.004610724336112926
5.551115123125783E-17
-0.15393499386110954
0.45577085841751697
2.0696243850007106
-0.08190574330676792
0.11613703291526717
-0.00848018475479595
-0.013765965985654799
-0.005090909090909035
0.016427968922269026
0.004753380643536226
0.0035841478038366736
0.012843821118432353
0.02418088094979226
-0.003921676251209538
0.0018442897344453368
-0.024803722012010976
0.019869460418682816
-0.014051278600500816
0.02538833843186089
-0.01089509971893321
0.023700696194996262
0.0055328692033357885
0.009506761287072507
0.015648480362469464
0.03773798360533953
-0.012701164811009136
0.00968764223686469
0.009506761287072507
0.03344055426438772
-0.03454358008140243
-0.0023766903217679047
0.014973423467723679
0.00819487213994996
-0.22644190220939558
0.9114609725442533
-0.0540581673346314
-0.27958126881752643
0.06107316897264764
-0.04341350911609829
-0.02510302581701479
0.006103494433027823
0.014778551327773615
-0.0374004551579665
0.03372586687923379
0.018362699131610455
0.027622372446205967
0.006013053958131842
-0.013908622293077932
-0.0416596598565489
0.04282889269624868
-0.028972486235697426
0.009402329622018424
-0.002999531383986842
-0.004701164811009184
0.045842415270393344
-0.05948995840083662
0.031206520250042724
0.017350113789491667
-0.01744055426438762
-0.01060978710408711
-0.03415383580150266
0.04976409152160299
0.05810161996897595
0.0015067612870724445
-0.028387869815847844
0.05073845222135259
-0.07429933301801661
0.24378384403942677
-1.026741490014974
-1.5074374734073814
0.19554866756731354
0.014193934907924033
-0.010467130796664142
-0.024713281537115023
0.001986946041868304
-0.020791605285905346
-0.0021296023492912985
0.022141719075397054
-0.00823309678231901
0.03434870794145273
-0.06236082466755821
-0.04240092377397947
-0.002714218769140908
-0.02980419062802403
0.011337059831359908
-0.023206520250042578
0.016908153677064913
-0.05639998654195358
-0.06507504343669937
-0.01012960234929125
-6.750568947457847E-4
0.02950488682302041
0.0017398580693914478
0.00445407683853255
0.007025639300250519
0.09587782821668459
-0.028920270403170634
-0.011869460418682698
0.005960838125604828
-0.007572031077730967
-0.18773605123825665
0.08378813144432967
-0.20393466291910922
0.18739202006973288
-0.009064801174645615
-0.0010648011746456076
0.031491832864888714
-0.004116548391159533
-0.019427500306255993
-0.02006433255863263
0.01768764223686456
0.01783029854428761
-0.0010125853421187325
0.02334917655746574
-0.007116079775146555
-0.2946989396381414
0.034886877141431946
0.016841335156049395
0.09436939495830765
-0.08112920158908635
-0.09335306500952595
0.0274408482863302
0.01661618095398243
0.019834586596246206
-0.03794129876749128
0.0012622409757151454
0.03309143045686158
0.03413973594218955
0.08055871855871616
-0.05339297594863579
-0.12073613713640302
0.10497699028562114
0.7406751149729229
-0.033818655130483405
0.07678321434325015
-0.44373872240878726
0.06532365879174933
-0.0638962933376141
-0.17228791842507907
0.1311430539134807
0.117856045109557
0.0604228376816387
-0.03295230959899642
0.027770496917231297
-0.0968168965317274
-0.052610457489491155
-0.09205476693622537
-0.02890838603441878
0.06122462791189218
-2.015354584153128
0.21392535055405698
0.018714549401545887
-0.058982743085555026
0.015597601872454986
0.07301652955397682
-0.08968455327522905
-0.03505978412908162
0.02807386626038308
-0.015431262490843369
-0.014918416251875302
0.037286702537695296
-0.041415527570496026
-0.006052834472825283
0.13838274480339813
-0.06241615818636178
-0.09328245633207315
0.8830549415641602
-1.506455913792418
-0.03783481184913541
0.1547484016193679
-0.037032114140028605
0.13774927833320724
0.04924814712673456
-0.1872749113762544
0.11552176318467512
-0.10838797497376637
0.16020440877931788
0.21178864611564466
0.11467323619031614
0.31596999964399497
0.12591429580226707
-0.19187067706768118
-0.1414056760399071
0.5960313629491685
-1.6065354842094801
0.12191590830439225
-0.14316914718793117
-0.012385421701664012
0.15281941748200345
0.12624539987415617
-0.270154931035373
-0.22664727284831396
-0.01756409834394873
-0.09528895799820392
-0.09228894933205012
-0.0648949164804225
-0.011887812715831725
0.24928409796472495
-0.0860151517697354
-0.09770170314784726
0.940843986432006
-0.8571083189429951
0.09417522315339116
-0.03007609674555589
0.003004955298872347
0.09229884259748766
0.044521337243356274
-0.11366812495321424
-0.03326120140503094
0.01050045048116105
0.021158968051815885
-0.0061458954161295876
-0.0023393859581091747
-0.07454880796097141
0.06754102849907728
-0.04068598828826997
-0.13152905155860142
-0.06937484070509536
0.7075374309023255
0.00929561936791451
0.004100561365898647
-0.0025983262899605397
0.048711195326963164
-0.08137858326302239
-0.09287968109266527
0.00957013943965908
0.041287606555940326
0.006379617437391488
-0.034559879403015165
0.06269597682642053
-0.09464450063455748
-0.043057349782925386
-0.11425997807724314
-1.2494578543582138
0.5198229512495426
-0.014969177225131719
0.014377668238231112
0.03325576962531601
0.08498663281528185
-0.09939760203630175
-0.051702508839895814
0.009780823332742314
-0.008102060082678025
-0.009964108732825744
0.029206485179842617
-0.09840419465787542
-0.04680847598704821
-0.18347349508670446
-0.8291529697731042
0.6023916394873607
0.015937313176637935
0.014871656037586944
0.005392967284922001
0.03487106694928371
-0.08013760480389848
-0.012053607325274246
0.03704562859194219
0.038395228358101496
0.030629088985285602
0.0021880760945721667
-0.04570068091435006
0.08063834982921103
-0.08785511814877373
-0.08857969192991105
0.21620279763147396
-2.238758067617778
0.2482324043570509
-0.005569495459048529
0.02488801198482979
0.0013711968902721527
0.05637068888684543
-0.09089722072627268
-0.02165949508662353
-0.0014713245691187968
0.0192139689806164
-0.022565715057622688
0.019369559906208134
-0.049694085814195696
0.11014322289343606
-0.06589570460834007
-0.06250181606401667
0.4034734102920968
-2.147976559400551
0.19883851395418628
-0.018587856512311034
-0.01187791415634511
0.04390333100489016
0.06769270795178678
-0.11929795029887888
-0.02261125165357103
0.027995651119298165
0.04153616847535868
-0.016853039014724958
0.01967651950675256
-0.040790482717104115
0.050171919413887656
-0.03046112863035455
-0.10116069386965626
-0.5944867055298502
0.6765459235767315
-0.003004470151876354
0.030968630881624243
0.036208477709771425
0.04389763670457668
-0.06837672394026029
-0.02902779126022803
0.05974870052168024
0.002662277363053467
0.019352302655566145
0.0014554196412358555
-0.034667509871329716
0.12319314399358566
-0.09294727629986044
-0.09307530578007189
0.2817231707090476
-1.4026417315319843
0.11649293089148388
4.10250195388262E-4
0.03094835920375366
0.02685274447057351
0.08118374454373811
-0.1272018850833172
0.049016338612495325
-0.016301857368233197
0.01235936309182839
0.0203691177513437
0.016291964102796097
-0.007764813926573522
0.07548502149226177
-0.05153587393120701
-0.25978562191148485
0.4073570935565807
0.24307232722408023
0.008299345081671183
-0.045922699076936635
0.012688526575733466
0.056376334123395294
-0.018123362662639197
-0.033876334124615215
0.04834763323225155
0.046381575300265765
0.033996993897847994
-0.01682106347817841
-0.01662112758670109
0.07176308993745512
-0.03835601044860221
-0.07092647080976855
0.04930302906627604
-0.5608718117438418
0.4409269699378548
0.03396369291505924
0.11262560639985122
0.035050731162890536
0.07537376983747063
-0.13074945420948625
0.021447588179979493
0.050201599210199954
-0.0019156213108070252
0.06842088848247835
-0.015697103061082185
-0.057530459483799534
0.1508884711260445
-0.013496837960838393
-0.1186413084632309
1.3821026165416437
0.34675448633086425
-0.00257165253838304
0.045050436618738976
0.04398813153450115
0.0755331623732065
0.025359077213830267
-0.6162470161746534
0.15634989179645226
0.01933811812107744
-0.0780393288921698
0.12471721430555138
-0.03537289543358113
-0.0475690938163707
-0.1056427349454584
0.5034264498318144
1.0595833073393954
-0.1602718273068555
-0.10335897843319372
0.029739764966141058
0.03552398232164711
0.12700738460589256
0.052687028139867614
-0.08944172360067174
-0.2844569246957871
0.49659212826382965
0.21522506462951102
-0.22519299667166776
0.1111221108440954
-0.00777209698958066
0.03168173299007865
0.148705192364036
-0.1417286038973321
-0.4870210967344775
0.43303576009658507
0.12741955540622268
-0.6343365594994101
0.27581339966139196
-0.023860796326762468
0.06932283433319536
0.36320654487997656
0.33056473095041705
-0.22467066276532896
0.0518480710120931
0.21843583445914172
-0.39819300548327413
0.15084144439325098
-0.022223712147092067
0.04747565780506424
-0.11951164773965184
-1.1885760555083555
0.26309358699955054
0.2141661072304153
-0.3890928418300111
0.11899312997020312
0.04543960020980353
-0.059511974338265605
-0.2289518571341551
0.6947733328746699
1.003110666808984
0.11299325543354061
-0.06658211352837523
-0.018325947815620636
0.03940498397597342
0.04686587070097692
-0.3097326563992656
0.593116832494919
0.7960832978909511
0.11102629744727077
-0.0922289297058761
-0.005412663804238715
-0.014424082113915881
0.250849406357881
0.017469846235939557
-1.6071631231543135
-0.0739578131959725
0.23867494364443043
-0.3461215394493132
0.09975289520496528
-0.025792308209925063
0.07115566430547127
-0.2471725198157682
0.20453085165805646
0.5458193365075052
0.1380758607544324
-0.18035727005126656
0.07825385663357222
0.02094091987981976
-0.09261501199686992
0.22756006272102833
0.2849087119892024
-0.6329664901337536
4.775846256066668E-4
0.19495861896411082
-0.3007839332650162
0.12003680197177216
-0.08340045515796654
0.26814819558678876
0.024600152224848404
-1.7504541149675754
-0.059326229078685705
0.2694084462601216
-0.42563201601937345
0.17217024516933366
-0.02155507348868768
0.11789108734529757
-0.45088649815639426
0.9155077469209699
0.336912028583172
0.18160934762559922
-0.3240145349037785
0.12511187905358756
-3.7180349874765817E-4
-0.051363665501161226
-0.2746425805702005
1.1030800494066493
0.5618148995623278
0.14958080470910468
-0.12007047052688435
0.0010035942252967223
0.02371426472922422
-0.07869427795865458
0.19390539456890676
0.03923593237607548
-0.9685249007127646
-0.039990615364772886
0.1735722608781468
-0.3345976781853577
0.08898977005291342
-0.04083076716030021
0.17233377951926904
-0.03919707397911765
-1.861599008144157
-0.042721375688724694
0.20707449521548724
-0.4083766920730669
0.42014283686150394
0.4115838852249092
-0.08107254494054539
-0.06788549372970692
1.1324869983624266
-1.102310155981613
-0.050732782831451995
0.3030253728609257
-0.4183708373792447
0.01596804414596631
0.4975897059011679
0.034763919083945403
-0.34037125681266056
0.8055443945691358
-0.7960722869536709
-0.0863242263061424
-0.05656977506357652
0.8695668101022274
-0.8686790076191692
0.20362142267570826
0.17011985744285396
-0.16237041166709576
-0.1593229995465606
0.5375904882003144
0.3516369291577587
-1.1273665859321393
0.04580039011172654
0.3430025928422487
0.29673382871467713
-0.992365940759943
0.14471002046198367
0.3787165954487414
-0.16828582731666675
0.14872130460095578
-0.3515365169739567
0.20466308786783027
0.2366765466255496
-0.7380503744524345
0.04591459983510615
0.33459770808798156
0.27086586549724573
-0.6259788282085088
0.5373041500909712
0.05991781802173446
0.16730504957195602
-0.5326186291213242
0.6165983952930945
-0.22859437599697552
-0.09163982284734462
0.36993727003114285
0.5979132454621353
-0.5651006885907411
-0.14640002631748672
0.1417205442721865
0.7641273672896838
-0.8242938362816314
0.025216635639688012
-0.24140361764860163
0.06769558996632463
-0.7896219238179779
0.13294717722532545
0.12163943225044338
0.06853658545641483
0.7860360281121298
-0.912843329985931
0.07735226039964171
0.28762983731619474
0.4308358532634999
0.9677660101588244
0.5636776592109336
0.16293648127412913
0.11937381804755559
-0.40811450630723434
-0.34532778373611484
-0.5975944856118011
-0.7213332851070113
-0.7833422856655408
-0.9139800023027558
-0.7856334473577309
-0.689567692341567
-0.5476709646515815
-0.37600785683728377
-0.5305770575313358
-0.7106134710410041
-0.35285579416313734
-0.5468076862731773
-0.4717802078056639
-0.38970212432168894
0.20538060966079152
-0.339466464191299
0.3024487625786312
0.24272226546146647
0.10244477928239837
0.19733663224227993
0.43722014518154473
-1.8538456486625172
-2.0532215420827424
-2.473316356021255
-1.762845668300101
-0.641393502481674
-0.31818023841068743
0.6749264359612912
0.9854144701782247
2.870011795149169
3.88102350781015
3.7885330298009707
3.501508924643999
2.1504802960878218
1.1562952619418398
1.0460829326664176
1.6126325612562031
1.7620085021133367
2.4824559504615533
1.6045158493322182
0.7583735483052547
-0.2921142007573947
-0.9288059355480031
-1.987073903666606
-2.584777863499153
-2.777420470592102
-3.246756120691238
-3.7109477983185726
-3.0942368227909625
-3.0847153789610315
-2.59792261383798
-2.7511641770801787
-2.5756270967335135
