        D_1                  D_2                  D_3                  D_4                  D_5                  D_6                  S_6   
-0.00581850000000001 -0.00000000000000000 -0.00000000000000000 -0.00509106250000000  0.05745468749999996  0.10290907812499989 -0.25422720312499970
 0.00581850000000001 -0.00000000000000000 -0.00000000000000000 -0.00509106250000000  0.05745468749999996  0.10290907812499989 -0.25422720312499970
 0.01745450000000000  0.00000000000000000 -0.00000000000000000 -0.00509106250000000  0.05745468749999996  0.10290907812499989 -0.25422720312499970
-0.01745450000000000  0.00000000000000000 -0.00000000000000000 -0.00509106250000000  0.05745468749999996  0.10290907812499989 -0.25422720312499970
 0.01745450000000000 -0.00000000000000000  0.00000000000000000 -0.00509106250000000  0.05745468749999996  0.10290907812499989 -0.25422720312499970
-0.01745450000000000 -0.00000000000000000  0.00000000000000000 -0.00509106250000000  0.05745468749999996  0.10290907812499989 -0.25422720312499970
-0.00581850000000001  0.00000000000000000  0.00000000000000000 -0.00509106250000000  0.05745468749999996  0.10290907812499989 -0.25422720312499970
 0.00581850000000001  0.00000000000000000  0.00000000000000000 -0.00509106250000000  0.05745468749999996  0.10290907812499989 -0.25422720312499970
-0.00000000000000000 -0.00000000000000000 -0.00436362500000000  0.00509106250000000  0.05745468749999996  0.10290907812499989 -0.25422720312499970
 0.00000000000000000 -0.00000000000000000 -0.00436362500000000  0.00509106250000000  0.05745468749999996  0.10290907812499989 -0.25422720312499970
-0.00000000000000000  0.00000000000000000 -0.00436362500000000  0.00509106250000000  0.05745468749999996  0.10290907812499989 -0.25422720312499970
 0.00000000000000000  0.00000000000000000 -0.00436362500000000  0.00509106250000000  0.05745468749999996  0.10290907812499989 -0.25422720312499970
-0.00000000000000000 -0.00872724999999999  0.00436362500000000  0.00509106250000000  0.05745468749999996  0.10290907812499989 -0.25422720312499970
 0.00000000000000000 -0.00872724999999999  0.00436362500000000  0.00509106250000000  0.05745468749999996  0.10290907812499989 -0.25422720312499970
 0.01745449999999999  0.00872724999999999  0.00436362500000000  0.00509106250000000  0.05745468749999996  0.10290907812499989 -0.25422720312499970
-0.01745449999999999  0.00872724999999999  0.00436362500000000  0.00509106250000000  0.05745468749999996  0.10290907812499989 -0.25422720312499970
-0.00581850000000001 -0.00581825000000000  0.01454549999999999  0.10109106249999993 -0.05745468749999996  0.10290907812499989 -0.25422720312499970
 0.00581850000000001 -0.00581825000000000  0.01454549999999999  0.10109106249999993 -0.05745468749999996  0.10290907812499989 -0.25422720312499970
 0.00581799999999999  0.00581825000000000  0.01454549999999999  0.10109106249999993 -0.05745468749999996  0.10290907812499989 -0.25422720312499970
-0.00581799999999999  0.00581825000000000  0.01454549999999999  0.10109106249999993 -0.05745468749999996  0.10290907812499989 -0.25422720312499970
 0.00581850000000001  0.02327275000000000 -0.01454549999999999  0.10109106249999993 -0.05745468749999996  0.10290907812499989 -0.25422720312499970
-0.00581850000000001  0.02327275000000000 -0.01454549999999999  0.10109106249999993 -0.05745468749999996  0.10290907812499989 -0.25422720312499970
 0.00581800000000001 -0.02327275000000000 -0.01454549999999999  0.10109106249999993 -0.05745468749999996  0.10290907812499989 -0.25422720312499970
-0.00581800000000001 -0.02327275000000000 -0.01454549999999999  0.10109106249999993 -0.05745468749999996  0.10290907812499989 -0.25422720312499970
 0.01745450000000001  0.03490899999999997  0.09454537499999993 -0.10109106249999993 -0.05745468749999996  0.10290907812499989 -0.25422720312499970
-0.01745450000000001  0.03490899999999997  0.09454537499999993 -0.10109106249999993 -0.05745468749999996  0.10290907812499989 -0.25422720312499970
 0.01745449999999998 -0.03490899999999997  0.09454537499999993 -0.10109106249999993 -0.05745468749999996  0.10290907812499989 -0.25422720312499970
-0.01745449999999998 -0.03490899999999997  0.09454537499999993 -0.10109106249999993 -0.05745468749999996  0.10290907812499989 -0.25422720312499970
 0.03490899999999999  0.03200024999999997 -0.09454537499999993 -0.10109106249999993 -0.05745468749999996  0.10290907812499989 -0.25422720312499970
-0.03490899999999999  0.03200024999999997 -0.09454537499999993 -0.10109106249999993 -0.05745468749999996  0.10290907812499989 -0.25422720312499970
 0.01745449999999998 -0.03200024999999997 -0.09454537499999993 -0.10109106249999993 -0.05745468749999996  0.10290907812499989 -0.25422720312499970
-0.01745449999999998 -0.03200024999999997 -0.09454537499999993 -0.10109106249999993 -0.05745468749999996  0.10290907812499989 -0.25422720312499970
 0.00581800000000001  0.02327274999999995  0.00581812500000000 -0.05454549999999992 -0.11200009374999988 -0.10290907812499989 -0.25422720312499970
-0.00581800000000001  0.02327274999999995  0.00581812500000000 -0.05454549999999992 -0.11200009374999988 -0.10290907812499989 -0.25422720312499970
 0.00581850000000001 -0.02327274999999995  0.00581812500000000 -0.05454549999999992 -0.11200009374999988 -0.10290907812499989 -0.25422720312499970
-0.00581850000000001 -0.02327274999999995  0.00581812500000000 -0.05454549999999992 -0.11200009374999988 -0.10290907812499989 -0.25422720312499970
-0.00000000000000000 -0.00581799999999999 -0.00581812500000000 -0.05454549999999992 -0.11200009374999988 -0.10290907812499989 -0.25422720312499970
 0.00000000000000000 -0.00581799999999999 -0.00581812500000000 -0.05454549999999992 -0.11200009374999988 -0.10290907812499989 -0.25422720312499970
-0.00000000000000000  0.00581799999999999 -0.00581812500000000 -0.05454549999999992 -0.11200009374999988 -0.10290907812499989 -0.25422720312499970
 0.00000000000000000  0.00581799999999999 -0.00581812500000000 -0.05454549999999992 -0.11200009374999988 -0.10290907812499989 -0.25422720312499970
-0.00581849999999997 -0.02036374999999998 -0.04799987500000003  0.05454549999999992 -0.11200009374999988 -0.10290907812499989 -0.25422720312499970
 0.00581849999999997 -0.02036374999999998 -0.04799987500000003  0.05454549999999992 -0.11200009374999988 -0.10290907812499989 -0.25422720312499970
-0.00000000000000000  0.02036374999999998 -0.04799987500000003  0.05454549999999992 -0.11200009374999988 -0.10290907812499989 -0.25422720312499970
 0.00000000000000000  0.02036374999999998 -0.04799987500000003  0.05454549999999992 -0.11200009374999988 -0.10290907812499989 -0.25422720312499970
-0.01745450000000002 -0.02327249999999997  0.04799987500000003  0.05454549999999992 -0.11200009374999988 -0.10290907812499989 -0.25422720312499970
 0.01745450000000002 -0.02327249999999997  0.04799987500000003  0.05454549999999992 -0.11200009374999988 -0.10290907812499989 -0.25422720312499970
-0.01745450000000002  0.02327249999999997  0.04799987500000003  0.05454549999999992 -0.11200009374999988 -0.10290907812499989 -0.25422720312499970
 0.01745450000000002  0.02327249999999997  0.04799987500000003  0.05454549999999992 -0.11200009374999988 -0.10290907812499989 -0.25422720312499970
-0.00000000000000000 -0.03781824999999999 -0.01890912499999999 -0.03563643749999995  0.11200009374999988 -0.10290907812499989 -0.25422720312499970
 0.00000000000000000 -0.03781824999999999 -0.01890912499999999 -0.03563643749999995  0.11200009374999988 -0.10290907812499989 -0.25422720312499970
-0.00581849999999997  0.03781824999999999 -0.01890912499999999 -0.03563643749999995  0.11200009374999988 -0.10290907812499989 -0.25422720312499970
 0.00581849999999997  0.03781824999999999 -0.01890912499999999 -0.03563643749999995  0.11200009374999988 -0.10290907812499989 -0.25422720312499970
 0.01745499999999998 -0.01163649999999999  0.01890912499999999 -0.03563643749999995  0.11200009374999988 -0.10290907812499989 -0.25422720312499970
-0.01745499999999998 -0.01163649999999999  0.01890912499999999 -0.03563643749999995  0.11200009374999988 -0.10290907812499989 -0.25422720312499970
-0.00581800000000003  0.01163649999999999  0.01890912499999999 -0.03563643749999995  0.11200009374999988 -0.10290907812499989 -0.25422720312499970
 0.00581800000000003  0.01163649999999999  0.01890912499999999 -0.03563643749999995  0.11200009374999988 -0.10290907812499989 -0.25422720312499970
-0.00000000000000000  0.00581799999999999 -0.00581825000000001  0.03563643749999995  0.11200009374999988 -0.10290907812499989 -0.25422720312499970
 0.00000000000000000  0.00581799999999999 -0.00581825000000001  0.03563643749999995  0.11200009374999988 -0.10290907812499989 -0.25422720312499970
-0.00000000000000000 -0.00581799999999999 -0.00581825000000001  0.03563643749999995  0.11200009374999988 -0.10290907812499989 -0.25422720312499970
 0.00000000000000000 -0.00581799999999999 -0.00581825000000001  0.03563643749999995  0.11200009374999988 -0.10290907812499989 -0.25422720312499970
-0.01745449999999998 -0.00000000000000000  0.00581825000000001  0.03563643749999995  0.11200009374999988 -0.10290907812499989 -0.25422720312499970
 0.01745449999999998 -0.00000000000000000  0.00581825000000001  0.03563643749999995  0.11200009374999988 -0.10290907812499989 -0.25422720312499970
-0.01745449999999998  0.00000000000000000  0.00581825000000001  0.03563643749999995  0.11200009374999988 -0.10290907812499989 -0.25422720312499970
 0.01745449999999998  0.00000000000000000  0.00581825000000001  0.03563643749999995  0.11200009374999988 -0.10290907812499989 -0.25422720312499970
-0.00000000000000000  0.00000000000000001  0.01309112499999998  0.00872731250000002  0.00254543750000001  0.01636162499999994 -0.26186149999999970
 0.00000000000000000  0.00000000000000001  0.01309112499999998  0.00872731250000002  0.00254543750000001  0.01636162499999994 -0.26186149999999970
 0.03490900000000000 -0.00000000000000001  0.01309112499999998  0.00872731250000002  0.00254543750000001  0.01636162499999994 -0.26186149999999970
-0.03490900000000000 -0.00000000000000001  0.01309112499999998  0.00872731250000002  0.00254543750000001  0.01636162499999994 -0.26186149999999970
-0.01745449999999998 -0.00290925000000000 -0.01309112499999998  0.00872731250000002  0.00254543750000001  0.01636162499999994 -0.26186149999999970
 0.01745449999999998 -0.00290925000000000 -0.01309112499999998  0.00872731250000002  0.00254543750000001  0.01636162499999994 -0.26186149999999970
-0.00000000000000000  0.00290925000000000 -0.01309112499999998  0.00872731250000002  0.00254543750000001  0.01636162499999994 -0.26186149999999970
 0.00000000000000000  0.00290925000000000 -0.01309112499999998  0.00872731250000002  0.00254543750000001  0.01636162499999994 -0.26186149999999970
-0.00000000000000000 -0.00872700000000000  0.00436374999999996 -0.00872731250000002  0.00254543750000001  0.01636162499999994 -0.26186149999999970
 0.00000000000000000 -0.00872700000000000  0.00436374999999996 -0.00872731250000002  0.00254543750000001  0.01636162499999994 -0.26186149999999970
-0.00581799999999999  0.00872700000000000  0.00436374999999996 -0.00872731250000002  0.00254543750000001  0.01636162499999994 -0.26186149999999970
 0.00581799999999999  0.00872700000000000  0.00436374999999996 -0.00872731250000002  0.00254543750000001  0.01636162499999994 -0.26186149999999970
 0.01745449999999998  0.00581800000000002 -0.00436374999999996 -0.00872731250000002  0.00254543750000001  0.01636162499999994 -0.26186149999999970
-0.01745449999999998  0.00581800000000002 -0.00436374999999996 -0.00872731250000002  0.00254543750000001  0.01636162499999994 -0.26186149999999970
 0.00581849999999997 -0.00581800000000002 -0.00436374999999996 -0.00872731250000002  0.00254543750000001  0.01636162499999994 -0.26186149999999970
-0.00581849999999997 -0.00581800000000002 -0.00436374999999996 -0.00872731250000002  0.00254543750000001  0.01636162499999994 -0.26186149999999970
 0.00581849999999997 -0.00581825000000000 -0.00872725000000003  0.00072731249999999 -0.00254543750000001  0.01636162499999994 -0.26186149999999970
-0.00581849999999997 -0.00581825000000000 -0.00872725000000003  0.00072731249999999 -0.00254543750000001  0.01636162499999994 -0.26186149999999970
-0.00581800000000003  0.00581825000000000 -0.00872725000000003  0.00072731249999999 -0.00254543750000001  0.01636162499999994 -0.26186149999999970
 0.00581800000000003  0.00581825000000000 -0.00872725000000003  0.00072731249999999 -0.00254543750000001  0.01636162499999994 -0.26186149999999970
-0.01745450000000002  0.00000025000000001  0.00872725000000003  0.00072731249999999 -0.00254543750000001  0.01636162499999994 -0.26186149999999970
 0.01745450000000002  0.00000025000000001  0.00872725000000003  0.00072731249999999 -0.00254543750000001  0.01636162499999994 -0.26186149999999970
 0.00581799999999999 -0.00000025000000001  0.00872725000000003  0.00072731249999999 -0.00254543750000001  0.01636162499999994 -0.26186149999999970
-0.00581799999999999 -0.00000025000000001  0.00872725000000003  0.00072731249999999 -0.00254543750000001  0.01636162499999994 -0.26186149999999970
 0.01745449999999996 -0.01745449999999998 -0.03054537499999999 -0.00072731249999999 -0.00254543750000001  0.01636162499999994 -0.26186149999999970
-0.01745449999999996 -0.01745449999999998 -0.03054537499999999 -0.00072731249999999 -0.00254543750000001  0.01636162499999994 -0.26186149999999970
-0.01745450000000002  0.01745449999999998 -0.03054537499999999 -0.00072731249999999 -0.00254543750000001  0.01636162499999994 -0.26186149999999970
 0.01745450000000002  0.01745449999999998 -0.03054537499999999 -0.00072731249999999 -0.00254543750000001  0.01636162499999994 -0.26186149999999970
 0.01745450000000000  0.02618175000000000  0.03054537499999999 -0.00072731249999999 -0.00254543750000001  0.01636162499999994 -0.26186149999999970
-0.01745450000000000  0.02618175000000000  0.03054537499999999 -0.00072731249999999 -0.00254543750000001  0.01636162499999994 -0.26186149999999970
-0.03490900000000000 -0.02618175000000000  0.03054537499999999 -0.00072731249999999 -0.00254543750000001  0.01636162499999994 -0.26186149999999970
 0.03490900000000000 -0.02618175000000000  0.03054537499999999 -0.00072731249999999 -0.00254543750000001  0.01636162499999994 -0.26186149999999970
 0.03490899999999999 -0.05527274999999996  0.02618187499999999  0.04727281249999995  0.05054118749999995 -0.01636162499999994 -0.26186149999999970
-0.03490899999999999 -0.05527274999999996  0.02618187499999999  0.04727281249999995  0.05054118749999995 -0.01636162499999994 -0.26186149999999970
-0.00581850000000001  0.05527274999999996  0.02618187499999999  0.04727281249999995  0.05054118749999995 -0.01636162499999994 -0.26186149999999970
 0.00581850000000001  0.05527274999999996  0.02618187499999999  0.04727281249999995  0.05054118749999995 -0.01636162499999994 -0.26186149999999970
 0.01745500000000000  0.06109099999999997 -0.02618187499999999  0.04727281249999995  0.05054118749999995 -0.01636162499999994 -0.26186149999999970
-0.01745500000000000  0.06109099999999997 -0.02618187499999999  0.04727281249999995  0.05054118749999995 -0.01636162499999994 -0.26186149999999970
 0.03490899999999999 -0.06109099999999997 -0.02618187499999999  0.04727281249999995  0.05054118749999995 -0.01636162499999994 -0.26186149999999970
-0.03490899999999999 -0.06109099999999997 -0.02618187499999999  0.04727281249999995  0.05054118749999995 -0.01636162499999994 -0.26186149999999970
-0.01745449999999998  0.01745449999999998  0.04218174999999997 -0.04727281249999995  0.05054118749999995 -0.01636162499999994 -0.26186149999999970
 0.01745449999999998  0.01745449999999998  0.04218174999999997 -0.04727281249999995  0.05054118749999995 -0.01636162499999994 -0.26186149999999970
 0.01745449999999998 -0.01745449999999998  0.04218174999999997 -0.04727281249999995  0.05054118749999995 -0.01636162499999994 -0.26186149999999970
-0.01745449999999998 -0.01745449999999998  0.04218174999999997 -0.04727281249999995  0.05054118749999995 -0.01636162499999994 -0.26186149999999970
 0.00581799999999999  0.00872750000000003 -0.04218174999999997 -0.04727281249999995  0.05054118749999995 -0.01636162499999994 -0.26186149999999970
-0.00581799999999999  0.00872750000000003 -0.04218174999999997 -0.04727281249999995  0.05054118749999995 -0.01636162499999994 -0.26186149999999970
-0.00000000000000000 -0.00872750000000003 -0.04218174999999997 -0.04727281249999995  0.05054118749999995 -0.01636162499999994 -0.26186149999999970
 0.00000000000000000 -0.00872750000000003 -0.04218174999999997 -0.04727281249999995  0.05054118749999995 -0.01636162499999994 -0.26186149999999970
 0.00581799999999999  0.01745449999999998  0.01890912500000001 -0.00437231250000000 -0.05054118749999995 -0.01636162499999994 -0.26186149999999970
-0.00581799999999999  0.01745449999999998  0.01890912500000001 -0.00437231250000000 -0.05054118749999995 -0.01636162499999994 -0.26186149999999970
-0.00581800000000003 -0.01745449999999998  0.01890912500000001 -0.00437231250000000 -0.05054118749999995 -0.01636162499999994 -0.26186149999999970
 0.00581800000000003 -0.01745449999999998  0.01890912500000001 -0.00437231250000000 -0.05054118749999995 -0.01636162499999994 -0.26186149999999970
 0.01745449999999998  0.04363624999999998 -0.01890912500000001 -0.00437231250000000 -0.05054118749999995 -0.01636162499999994 -0.26186149999999970
-0.01745449999999998  0.04363624999999998 -0.01890912500000001 -0.00437231250000000 -0.05054118749999995 -0.01636162499999994 -0.26186149999999970
 0.06981800000000000 -0.04363624999999998 -0.01890912500000001 -0.00437231250000000 -0.05054118749999995 -0.01636162499999994 -0.26186149999999970
-0.06981800000000000 -0.04363624999999998 -0.01890912500000001 -0.00437231250000000 -0.05054118749999995 -0.01636162499999994 -0.26186149999999970
-0.12218199999999996 -0.33747724999999990  0.38836924999999970  0.00437231250000000 -0.05054118749999995 -0.01636162499999994 -0.26186149999999970
 0.12218199999999996 -0.33747724999999990  0.38836924999999970  0.00437231250000000 -0.05054118749999995 -0.01636162499999994 -0.26186149999999970
-0.12218149999999996  0.33747724999999990  0.38836924999999970  0.00437231250000000 -0.05054118749999995 -0.01636162499999994 -0.26186149999999970
 0.12218149999999996  0.33747724999999990  0.38836924999999970  0.00437231250000000 -0.05054118749999995 -0.01636162499999994 -0.26186149999999970
 0.40147749999999993  0.59055674999999970 -0.38836924999999970  0.00437231250000000 -0.05054118749999995 -0.01636162499999994 -0.26186149999999970
-0.40147749999999993  0.59055674999999970 -0.38836924999999970  0.00437231250000000 -0.05054118749999995 -0.01636162499999994 -0.26186149999999970
-0.03490900000000012 -0.59055674999999970 -0.38836924999999970  0.00437231250000000 -0.05054118749999995 -0.01636162499999994 -0.26186149999999970
 0.03490900000000012 -0.59055674999999970 -0.38836924999999970  0.00437231250000000 -0.05054118749999995 -0.01636162499999994 -0.26186149999999970
-0.12218200000000000 -0.21818174999999990 -0.32436362499999980 -0.20581818749999986 -0.09199993749999992  0.03108879687499998 -0.30204329687499964
 0.12218200000000000 -0.21818174999999990 -0.32436362499999980 -0.20581818749999986 -0.09199993749999992  0.03108879687499998 -0.30204329687499964
-0.06981850000000000  0.21818174999999990 -0.32436362499999980 -0.20581818749999986 -0.09199993749999992  0.03108879687499998 -0.30204329687499964
 0.06981850000000000  0.21818174999999990 -0.32436362499999980 -0.20581818749999986 -0.09199993749999992  0.03108879687499998 -0.30204329687499964
-0.12218200000000000 -0.09890899999999997  0.32436362499999980 -0.20581818749999986 -0.09199993749999992  0.03108879687499998 -0.30204329687499964
 0.12218200000000000 -0.09890899999999997  0.32436362499999980 -0.20581818749999986 -0.09199993749999992  0.03108879687499998 -0.30204329687499964
-0.00581800000000001  0.09890899999999997  0.32436362499999980 -0.20581818749999986 -0.09199993749999992  0.03108879687499998 -0.30204329687499964
 0.00581800000000001  0.09890899999999997  0.32436362499999980 -0.20581818749999986 -0.09199993749999992  0.03108879687499998 -0.30204329687499964
-0.01745450000000000 -0.02327274999999997 -0.01163649999999998  0.20581818749999986 -0.09199993749999992  0.03108879687499998 -0.30204329687499964
 0.01745450000000000 -0.02327274999999997 -0.01163649999999998  0.20581818749999986 -0.09199993749999992  0.03108879687499998 -0.30204329687499964
 0.00581800000000001  0.02327274999999997 -0.01163649999999998  0.20581818749999986 -0.09199993749999992  0.03108879687499998 -0.30204329687499964
-0.00581800000000001  0.02327274999999997 -0.01163649999999998  0.20581818749999986 -0.09199993749999992  0.03108879687499998 -0.30204329687499964
 0.01745449999999998 -0.05818174999999998  0.01163649999999998  0.20581818749999986 -0.09199993749999992  0.03108879687499998 -0.30204329687499964
-0.01745449999999998 -0.05818174999999998  0.01163649999999998  0.20581818749999986 -0.09199993749999992  0.03108879687499998 -0.30204329687499964
 0.00581799999999999  0.05818174999999998  0.01163649999999998  0.20581818749999986 -0.09199993749999992  0.03108879687499998 -0.30204329687499964
-0.00581799999999999  0.05818174999999998  0.01163649999999998  0.20581818749999986 -0.09199993749999992  0.03108879687499998 -0.30204329687499964
-0.01745449999999999  0.02909124999999999 -0.03054537499999997  0.06981818749999995  0.09199993749999992  0.03108879687499998 -0.30204329687499964
 0.01745449999999999  0.02909124999999999 -0.03054537499999997  0.06981818749999995  0.09199993749999992  0.03108879687499998 -0.30204329687499964
 0.00581800000000000 -0.02909124999999999 -0.03054537499999997  0.06981818749999995  0.09199993749999992  0.03108879687499998 -0.30204329687499964
-0.00581800000000000 -0.02909124999999999 -0.03054537499999997  0.06981818749999995  0.09199993749999992  0.03108879687499998 -0.30204329687499964
-0.06981799999999999 -0.06109099999999998  0.03054537499999997  0.06981818749999995  0.09199993749999992  0.03108879687499998 -0.30204329687499964
 0.06981799999999999 -0.06109099999999998  0.03054537499999997  0.06981818749999995  0.09199993749999992  0.03108879687499998 -0.30204329687499964
 0.01745500000000000  0.06109099999999998  0.03054537499999997  0.06981818749999995  0.09199993749999992  0.03108879687499998 -0.30204329687499964
-0.01745500000000000  0.06109099999999998  0.03054537499999997  0.06981818749999995  0.09199993749999992  0.03108879687499998 -0.30204329687499964
 0.06981799999999998 -0.01745449999999999  0.09163624999999996 -0.06981818749999995  0.09199993749999992  0.03108879687499998 -0.30204329687499964
-0.06981799999999998 -0.01745449999999999  0.09163624999999996 -0.06981818749999995  0.09199993749999992  0.03108879687499998 -0.30204329687499964
 0.03490899999999999  0.01745449999999999  0.09163624999999996 -0.06981818749999995  0.09199993749999992  0.03108879687499998 -0.30204329687499964
-0.03490899999999999  0.01745449999999999  0.09163624999999996 -0.06981818749999995  0.09199993749999992  0.03108879687499998 -0.30204329687499964
-0.01745499999999998 -0.06109100000000002 -0.09163624999999996 -0.06981818749999995  0.09199993749999992  0.03108879687499998 -0.30204329687499964
 0.01745499999999998 -0.06109100000000002 -0.09163624999999996 -0.06981818749999995  0.09199993749999992  0.03108879687499998 -0.30204329687499964
-0.06981799999999999  0.06109100000000002 -0.09163624999999996 -0.06981818749999995  0.09199993749999992  0.03108879687499998 -0.30204329687499964
 0.06981799999999999  0.06109100000000002 -0.09163624999999996 -0.06981818749999995  0.09199993749999992  0.03108879687499998 -0.30204329687499964
-0.06402299999999998 -0.04946599999999998  0.08292624999999997  0.15200849999999985  0.14182234374999990 -0.03108879687499998 -0.30204329687499964
 0.06402299999999998 -0.04946599999999998  0.08292624999999997  0.15200849999999985  0.14182234374999990 -0.03108879687499998 -0.30204329687499964
 0.03490900000000000  0.04946599999999998  0.08292624999999997  0.15200849999999985  0.14182234374999990 -0.03108879687499998 -0.30204329687499964
-0.03490900000000000  0.04946599999999998  0.08292624999999997  0.15200849999999985  0.14182234374999990 -0.03108879687499998 -0.30204329687499964
 0.01745450000000000  0.03490900000000000 -0.08292624999999997  0.15200849999999985  0.14182234374999990 -0.03108879687499998 -0.30204329687499964
-0.01745450000000000  0.03490900000000000 -0.08292624999999997  0.15200849999999985  0.14182234374999990 -0.03108879687499998 -0.30204329687499964
-0.01745449999999999 -0.03490900000000000 -0.08292624999999997  0.15200849999999985  0.14182234374999990 -0.03108879687499998 -0.30204329687499964
 0.01745449999999999 -0.03490900000000000 -0.08292624999999997  0.15200849999999985  0.14182234374999990 -0.03108879687499998 -0.30204329687499964
 0.03490899999999999  0.05527274999999998  0.07854549999999995 -0.15200849999999985  0.14182234374999990 -0.03108879687499998 -0.30204329687499964
-0.03490899999999999  0.05527274999999998  0.07854549999999995 -0.15200849999999985  0.14182234374999990 -0.03108879687499998 -0.30204329687499964
 0.00581850000000001 -0.05527274999999998  0.07854549999999995 -0.15200849999999985  0.14182234374999990 -0.03108879687499998 -0.30204329687499964
-0.00581850000000001 -0.05527274999999998  0.07854549999999995 -0.15200849999999985  0.14182234374999990 -0.03108879687499998 -0.30204329687499964
 0.03490899999999997  0.02618175000000000 -0.07854549999999995 -0.15200849999999985  0.14182234374999990 -0.03108879687499998 -0.30204329687499964
-0.03490899999999997  0.02618175000000000 -0.07854549999999995 -0.15200849999999985  0.14182234374999990 -0.03108879687499998 -0.30204329687499964
-0.01745450000000002 -0.02618175000000000 -0.07854549999999995 -0.15200849999999985  0.14182234374999990 -0.03108879687499998 -0.30204329687499964
 0.01745450000000002 -0.02618175000000000 -0.07854549999999995 -0.15200849999999985  0.14182234374999990 -0.03108879687499998 -0.30204329687499964
 0.03490900000000000  0.03200025000000000 -0.00290912499999995 -0.08945468749999996 -0.14182234374999990 -0.03108879687499998 -0.30204329687499964
-0.03490900000000000  0.03200025000000000 -0.00290912499999995 -0.08945468749999996 -0.14182234374999990 -0.03108879687499998 -0.30204329687499964
 0.01745449999999998 -0.03200025000000000 -0.00290912499999995 -0.08945468749999996 -0.14182234374999990 -0.03108879687499998 -0.30204329687499964
-0.01745449999999998 -0.03200025000000000 -0.00290912499999995 -0.08945468749999996 -0.14182234374999990 -0.03108879687499998 -0.30204329687499964
-0.03490899999999997 -0.05527300000000001  0.00290912499999995 -0.08945468749999996 -0.14182234374999990 -0.03108879687499998 -0.30204329687499964
 0.03490899999999997 -0.05527300000000001  0.00290912499999995 -0.08945468749999996 -0.14182234374999990 -0.03108879687499998 -0.30204329687499964
-0.00581799999999997  0.05527300000000001  0.00290912499999995 -0.08945468749999996 -0.14182234374999990 -0.03108879687499998 -0.30204329687499964
 0.00581799999999997  0.05527300000000001  0.00290912499999995 -0.08945468749999996 -0.14182234374999990 -0.03108879687499998 -0.30204329687499964
-0.01745449999999994 -0.03781800000000001 -0.07127274999999995  0.08945468749999996 -0.14182234374999990 -0.03108879687499998 -0.30204329687499964
 0.01745449999999994 -0.03781800000000001 -0.07127274999999995  0.08945468749999996 -0.14182234374999990 -0.03108879687499998 -0.30204329687499964
-0.06981849999999996  0.03781800000000001 -0.07127274999999995  0.08945468749999996 -0.14182234374999990 -0.03108879687499998 -0.30204329687499964
 0.06981849999999996  0.03781800000000001 -0.07127274999999995  0.08945468749999996 -0.14182234374999990 -0.03108879687499998 -0.30204329687499964
 0.01745450000000002 -0.01745449999999998  0.07127274999999995  0.08945468749999996 -0.14182234374999990 -0.03108879687499998 -0.30204329687499964
-0.01745450000000002 -0.01745449999999998  0.07127274999999995  0.08945468749999996 -0.14182234374999990 -0.03108879687499998 -0.30204329687499964
 0.01745449999999996  0.01745449999999998  0.07127274999999995  0.08945468749999996 -0.14182234374999990 -0.03108879687499998 -0.30204329687499964
-0.01745449999999996  0.01745449999999998  0.07127274999999995  0.08945468749999996 -0.14182234374999990 -0.03108879687499998 -0.30204329687499964
-0.01745450000000002 -0.06109074999999997 -0.03054537500000001 -0.01890912499999998 -0.02799990624999999 -0.05527485937499992 -0.17277048437499980
 0.01745450000000002 -0.06109074999999997 -0.03054537500000001 -0.01890912499999998 -0.02799990624999999 -0.05527485937499992 -0.17277048437499980
-0.03490900000000000  0.06109074999999997 -0.03054537500000001 -0.01890912499999998 -0.02799990624999999 -0.05527485937499992 -0.17277048437499980
 0.03490900000000000  0.06109074999999997 -0.03054537500000001 -0.01890912499999998 -0.02799990624999999 -0.05527485937499992 -0.17277048437499980
 0.03490899999999999  0.03490900000000000  0.03054537500000001 -0.01890912499999998 -0.02799990624999999 -0.05527485937499992 -0.17277048437499980
-0.03490899999999999  0.03490900000000000  0.03054537500000001 -0.01890912499999998 -0.02799990624999999 -0.05527485937499992 -0.17277048437499980
-0.03490899999999999 -0.03490900000000000  0.03054537500000001 -0.01890912499999998 -0.02799990624999999 -0.05527485937499992 -0.17277048437499980
 0.03490899999999999 -0.03490900000000000  0.03054537500000001 -0.01890912499999998 -0.02799990624999999 -0.05527485937499992 -0.17277048437499980
-0.01745450000000002 -0.01745450000000001 -0.00727287500000000  0.01890912499999998 -0.02799990624999999 -0.05527485937499992 -0.17277048437499980
 0.01745450000000002 -0.01745450000000001 -0.00727287500000000  0.01890912499999998 -0.02799990624999999 -0.05527485937499992 -0.17277048437499980
-0.01745449999999998  0.01745450000000001 -0.00727287500000000  0.01890912499999998 -0.02799990624999999 -0.05527485937499992 -0.17277048437499980
 0.01745449999999998  0.01745450000000001 -0.00727287500000000  0.01890912499999998 -0.02799990624999999 -0.05527485937499992 -0.17277048437499980
 0.01745450000000002 -0.00872724999999999  0.00727287500000000  0.01890912499999998 -0.02799990624999999 -0.05527485937499992 -0.17277048437499980
-0.01745450000000002 -0.00872724999999999  0.00727287500000000  0.01890912499999998 -0.02799990624999999 -0.05527485937499992 -0.17277048437499980
 0.03490900000000000  0.00872724999999999  0.00727287500000000  0.01890912499999998 -0.02799990624999999 -0.05527485937499992 -0.17277048437499980
-0.03490900000000000  0.00872724999999999  0.00727287500000000  0.01890912499999998 -0.02799990624999999 -0.05527485937499992 -0.17277048437499980
 0.00581850000000001  0.05527274999999997 -0.04654549999999997 -0.03563631249999998  0.02799990624999999 -0.05527485937499992 -0.17277048437499980
-0.00581850000000001  0.05527274999999997 -0.04654549999999997 -0.03563631249999998  0.02799990624999999 -0.05527485937499992 -0.17277048437499980
-0.03490899999999999 -0.05527274999999997 -0.04654549999999997 -0.03563631249999998  0.02799990624999999 -0.05527485937499992 -0.17277048437499980
 0.03490899999999999 -0.05527274999999997 -0.04654549999999997 -0.03563631249999998  0.02799990624999999 -0.05527485937499992 -0.17277048437499980
-0.01745450000000000 -0.09600024999999994  0.04654549999999997 -0.03563631249999998  0.02799990624999999 -0.05527485937499992 -0.17277048437499980
 0.01745450000000000 -0.09600024999999994  0.04654549999999997 -0.03563631249999998  0.02799990624999999 -0.05527485937499992 -0.17277048437499980
-0.03490899999999999  0.09600024999999994  0.04654549999999997 -0.03563631249999998  0.02799990624999999 -0.05527485937499992 -0.17277048437499980
 0.03490899999999999  0.09600024999999994  0.04654549999999997 -0.03563631249999998  0.02799990624999999 -0.05527485937499992 -0.17277048437499980
 0.06981849999999998 -0.01745449999999998 -0.01599987499999999  0.03563631249999998  0.02799990624999999 -0.05527485937499992 -0.17277048437499980
-0.06981849999999998 -0.01745449999999998 -0.01599987499999999  0.03563631249999998  0.02799990624999999 -0.05527485937499992 -0.17277048437499980
-0.03490950000000001  0.01745449999999998 -0.01599987499999999  0.03563631249999998  0.02799990624999999 -0.05527485937499992 -0.17277048437499980
 0.03490950000000001  0.01745449999999998 -0.01599987499999999  0.03563631249999998  0.02799990624999999 -0.05527485937499992 -0.17277048437499980
-0.00581850000000001  0.01454574999999999  0.01599987499999999  0.03563631249999998  0.02799990624999999 -0.05527485937499992 -0.17277048437499980
 0.00581850000000001  0.01454574999999999  0.01599987499999999  0.03563631249999998  0.02799990624999999 -0.05527485937499992 -0.17277048437499980
-0.00000000000000000 -0.01454574999999999  0.01599987499999999  0.03563631249999998  0.02799990624999999 -0.05527485937499992 -0.17277048437499980
 0.00000000000000000 -0.01454574999999999  0.01599987499999999  0.03563631249999998  0.02799990624999999 -0.05527485937499992 -0.17277048437499980
 0.01745449999999999  0.07854575000000000 -0.01890899999999997 -0.03636368749999997 -0.01636793749999998  0.05527485937499992 -0.17277048437499980
-0.01745449999999999  0.07854575000000000 -0.01890899999999997 -0.03636368749999997 -0.01636793749999998  0.05527485937499992 -0.17277048437499980
 0.06981799999999999 -0.07854575000000000 -0.01890899999999997 -0.03636368749999997 -0.01636793749999998  0.05527485937499992 -0.17277048437499980
-0.06981799999999999 -0.07854575000000000 -0.01890899999999997 -0.03636368749999997 -0.01636793749999998  0.05527485937499992 -0.17277048437499980
-0.01745450000000001 -0.02909124999999999  0.01890899999999997 -0.03636368749999997 -0.01636793749999998  0.05527485937499992 -0.17277048437499980
 0.01745450000000001 -0.02909124999999999  0.01890899999999997 -0.03636368749999997 -0.01636793749999998  0.05527485937499992 -0.17277048437499980
-0.00581799999999999  0.02909124999999999  0.01890899999999997 -0.03636368749999997 -0.01636793749999998  0.05527485937499992 -0.17277048437499980
 0.00581799999999999  0.02909124999999999  0.01890899999999997 -0.03636368749999997 -0.01636793749999998  0.05527485937499992 -0.17277048437499980
 0.01745450000000000  0.01163624999999999 -0.01309087500000000  0.03636368749999997 -0.01636793749999998  0.05527485937499992 -0.17277048437499980
-0.01745450000000000  0.01163624999999999 -0.01309087500000000  0.03636368749999997 -0.01636793749999998  0.05527485937499992 -0.17277048437499980
 0.00581799999999999 -0.01163624999999999 -0.01309087500000000  0.03636368749999997 -0.01636793749999998  0.05527485937499992 -0.17277048437499980
-0.00581799999999999 -0.01163624999999999 -0.01309087500000000  0.03636368749999997 -0.01636793749999998  0.05527485937499992 -0.17277048437499980
-0.03490950000000000 -0.04363649999999999  0.01309087500000000  0.03636368749999997 -0.01636793749999998  0.05527485937499992 -0.17277048437499980
 0.03490950000000000 -0.04363649999999999  0.01309087500000000  0.03636368749999997 -0.01636793749999998  0.05527485937499992 -0.17277048437499980
 0.01745450000000000  0.04363649999999999  0.01309087500000000  0.03636368749999997 -0.01636793749999998  0.05527485937499992 -0.17277048437499980
-0.01745450000000000  0.04363649999999999  0.01309087500000000  0.03636368749999997 -0.01636793749999998  0.05527485937499992 -0.17277048437499980
-0.01745450000000000  0.02328399999999999  0.05528962499999996  0.04000856249999998  0.01636793749999998  0.05527485937499992 -0.17277048437499980
 0.01745450000000000  0.02328399999999999  0.05528962499999996  0.04000856249999998  0.01636793749999998  0.05527485937499992 -0.17277048437499980
 0.02911349999999999 -0.02328399999999999  0.05528962499999996  0.04000856249999998  0.01636793749999998  0.05527485937499992 -0.17277048437499980
-0.02911349999999999 -0.02328399999999999  0.05528962499999996  0.04000856249999998  0.01636793749999998  0.05527485937499992 -0.17277048437499980
 0.01745449999999999  0.00581825000000001 -0.05528962499999996  0.04000856249999998  0.01636793749999998  0.05527485937499992 -0.17277048437499980
-0.01745449999999999  0.00581825000000001 -0.05528962499999996  0.04000856249999998  0.01636793749999998  0.05527485937499992 -0.17277048437499980
 0.00581799999999999 -0.00581825000000001 -0.05528962499999996  0.04000856249999998  0.01636793749999998  0.05527485937499992 -0.17277048437499980
-0.00581799999999999 -0.00581825000000001 -0.05528962499999996  0.04000856249999998  0.01636793749999998  0.05527485937499992 -0.17277048437499980
-0.00000000000000000  0.00872725000000000  0.01599999999999999 -0.04000856249999998  0.01636793749999998  0.05527485937499992 -0.17277048437499980
 0.00000000000000000  0.00872725000000000  0.01599999999999999 -0.04000856249999998  0.01636793749999998  0.05527485937499992 -0.17277048437499980
-0.01745450000000000 -0.00872725000000000  0.01599999999999999 -0.04000856249999998  0.01636793749999998  0.05527485937499992 -0.17277048437499980
 0.01745450000000000 -0.00872725000000000  0.01599999999999999 -0.04000856249999998  0.01636793749999998  0.05527485937499992 -0.17277048437499980
-0.00581800000000001  0.01163625000000000 -0.01599999999999999 -0.04000856249999998  0.01636793749999998  0.05527485937499992 -0.17277048437499980
 0.00581800000000001  0.01163625000000000 -0.01599999999999999 -0.04000856249999998  0.01636793749999998  0.05527485937499992 -0.17277048437499980
 0.01745449999999999 -0.01163625000000000 -0.01599999999999999 -0.04000856249999998  0.01636793749999998  0.05527485937499992 -0.17277048437499980
-0.01745449999999999 -0.01163625000000000 -0.01599999999999999 -0.04000856249999998  0.01636793749999998  0.05527485937499992 -0.17277048437499980
-0.00000000000000000  0.00872725000000000 -0.01455112500000001  0.19636081249999984 -0.14292043749999986 -0.09255176562499988 -0.07147373437499992
 0.00000000000000000  0.00872725000000000 -0.01455112500000001  0.19636081249999984 -0.14292043749999986 -0.09255176562499988 -0.07147373437499992
 0.01745450000000000 -0.00872725000000000 -0.01455112500000001  0.19636081249999984 -0.14292043749999986 -0.09255176562499988 -0.07147373437499992
-0.01745450000000000 -0.00872725000000000 -0.01455112500000001  0.19636081249999984 -0.14292043749999986 -0.09255176562499988 -0.07147373437499992
 0.03490950000000000 -0.16001149999999995  0.01455112500000001  0.19636081249999984 -0.14292043749999986 -0.09255176562499988 -0.07147373437499992
-0.03490950000000000 -0.16001149999999995  0.01455112500000001  0.19636081249999984 -0.14292043749999986 -0.09255176562499988 -0.07147373437499992
-0.21529549999999997  0.16001149999999995  0.01455112500000001  0.19636081249999984 -0.14292043749999986 -0.09255176562499988 -0.07147373437499992
 0.21529549999999997  0.16001149999999995  0.01455112500000001  0.19636081249999984 -0.14292043749999986 -0.09255176562499988 -0.07147373437499992
 0.12218200000000000  0.66620474999999980  0.43637499999999990 -0.19636081249999984 -0.14292043749999986 -0.09255176562499988 -0.07147373437499992
-0.12218200000000000  0.66620474999999980  0.43637499999999990 -0.19636081249999984 -0.14292043749999986 -0.09255176562499988 -0.07147373437499992
 0.40727249999999990 -0.66620474999999980  0.43637499999999990 -0.19636081249999984 -0.14292043749999986 -0.09255176562499988 -0.07147373437499992
-0.40727249999999990 -0.66620474999999980  0.43637499999999990 -0.19636081249999984 -0.14292043749999986 -0.09255176562499988 -0.07147373437499992
-0.03490900000000012 -0.20072724999999988 -0.43637499999999990 -0.19636081249999984 -0.14292043749999986 -0.09255176562499988 -0.07147373437499992
 0.03490900000000012 -0.20072724999999988 -0.43637499999999990 -0.19636081249999984 -0.14292043749999986 -0.09255176562499988 -0.07147373437499992
-0.12218149999999996  0.20072724999999988 -0.43637499999999990 -0.19636081249999984 -0.14292043749999986 -0.09255176562499988 -0.07147373437499992
 0.12218149999999996  0.20072724999999988 -0.43637499999999990 -0.19636081249999984 -0.14292043749999986 -0.09255176562499988 -0.07147373437499992
-0.06981799999999998 -0.12218199999999996 -0.08728974999999994 -0.07201418749999994  0.14292043749999986 -0.09255176562499988 -0.07147373437499992
 0.06981799999999998 -0.12218199999999996 -0.08728974999999994 -0.07201418749999994  0.14292043749999986 -0.09255176562499988 -0.07147373437499992
-0.03490899999999999  0.12218199999999996 -0.08728974999999994 -0.07201418749999994  0.14292043749999986 -0.09255176562499988 -0.07147373437499992
 0.03490899999999999  0.12218199999999996 -0.08728974999999994 -0.07201418749999994  0.14292043749999986 -0.09255176562499988 -0.07147373437499992
 0.01165900000000000 -0.00582950000000000  0.08728974999999994 -0.07201418749999994  0.14292043749999986 -0.09255176562499988 -0.07147373437499992
-0.01165900000000000 -0.00582950000000000  0.08728974999999994 -0.07201418749999994  0.14292043749999986 -0.09255176562499988 -0.07147373437499992
-0.00000000000000000  0.00582950000000000  0.08728974999999994 -0.07201418749999994  0.14292043749999986 -0.09255176562499988 -0.07147373437499992
 0.00000000000000000  0.00582950000000000  0.08728974999999994 -0.07201418749999994  0.14292043749999986 -0.09255176562499988 -0.07147373437499992
-0.01745450000000000  0.02327274999999999 -0.02181837499999998  0.07201418749999994  0.14292043749999986 -0.09255176562499988 -0.07147373437499992
 0.01745450000000000  0.02327274999999999 -0.02181837499999998  0.07201418749999994  0.14292043749999986 -0.09255176562499988 -0.07147373437499992
-0.00581800000000000 -0.02327274999999999 -0.02181837499999998  0.07201418749999994  0.14292043749999986 -0.09255176562499988 -0.07147373437499992
 0.00581800000000000 -0.02327274999999999 -0.02181837499999998  0.07201418749999994  0.14292043749999986 -0.09255176562499988 -0.07147373437499992
 0.03490950000000000 -0.02618199999999998  0.02181837499999998  0.07201418749999994  0.14292043749999986 -0.09255176562499988 -0.07147373437499992
-0.03490950000000000 -0.02618199999999998  0.02181837499999998  0.07201418749999994  0.14292043749999986 -0.09255176562499988 -0.07147373437499992
-0.01745449999999999  0.02618199999999998  0.02181837499999998  0.07201418749999994  0.14292043749999986 -0.09255176562499988 -0.07147373437499992
 0.01745449999999999  0.02618199999999998  0.02181837499999998  0.07201418749999994  0.14292043749999986 -0.09255176562499988 -0.07147373437499992
 0.03490899999999999  0.00872725000000000 -0.00145462500000000 -0.03709087499999996  0.07855821874999992  0.09255176562499988 -0.07147373437499992
-0.03490899999999999  0.00872725000000000 -0.00145462500000000 -0.03709087499999996  0.07855821874999992  0.09255176562499988 -0.07147373437499992
-0.01745450000000000 -0.00872725000000000 -0.00145462500000000 -0.03709087499999996  0.07855821874999992  0.09255176562499988 -0.07147373437499992
 0.01745450000000000 -0.00872725000000000 -0.00145462500000000 -0.03709087499999996  0.07855821874999992  0.09255176562499988 -0.07147373437499992
-0.00581850000000000  0.01163649999999999  0.00145462500000000 -0.03709087499999996  0.07855821874999992  0.09255176562499988 -0.07147373437499992
 0.00581850000000000  0.01163649999999999  0.00145462500000000 -0.03709087499999996  0.07855821874999992  0.09255176562499988 -0.07147373437499992
 0.01745450000000000 -0.01163649999999999  0.00145462500000000 -0.03709087499999996  0.07855821874999992  0.09255176562499988 -0.07147373437499992
-0.01745450000000000 -0.01163649999999999  0.00145462500000000 -0.03709087499999996  0.07855821874999992  0.09255176562499988 -0.07147373437499992
-0.00000000000000000  0.01745449999999999  0.02036337500000000  0.03709087499999996  0.07855821874999992  0.09255176562499988 -0.07147373437499992
 0.00000000000000000  0.01745449999999999  0.02036337500000000  0.03709087499999996  0.07855821874999992  0.09255176562499988 -0.07147373437499992
-0.03490900000000000 -0.01745449999999999  0.02036337500000000  0.03709087499999996  0.07855821874999992  0.09255176562499988 -0.07147373437499992
 0.03490900000000000 -0.01745449999999999  0.02036337500000000  0.03709087499999996  0.07855821874999992  0.09255176562499988 -0.07147373437499992
 0.00581800000000000  0.01745424999999999 -0.02036337500000000  0.03709087499999996  0.07855821874999992  0.09255176562499988 -0.07147373437499992
-0.00581800000000000  0.01745424999999999 -0.02036337500000000  0.03709087499999996  0.07855821874999992  0.09255176562499988 -0.07147373437499992
 0.01745449999999999 -0.01745424999999999 -0.02036337500000000  0.03709087499999996  0.07855821874999992  0.09255176562499988 -0.07147373437499992
-0.01745449999999999 -0.01745424999999999 -0.02036337500000000  0.03709087499999996  0.07855821874999992  0.09255176562499988 -0.07147373437499992
-0.03490900000000000 -0.01454575000000000  0.05236949999999997  0.12438343749999990 -0.07855821874999992  0.09255176562499988 -0.07147373437499992
 0.03490900000000000 -0.01454575000000000  0.05236949999999997  0.12438343749999990 -0.07855821874999992  0.09255176562499988 -0.07147373437499992
 0.01745449999999999  0.01454575000000000  0.05236949999999997  0.12438343749999990 -0.07855821874999992  0.09255176562499988 -0.07147373437499992
-0.01745449999999999  0.01454575000000000  0.05236949999999997  0.12438343749999990 -0.07855821874999992  0.09255176562499988 -0.07147373437499992
-0.00000000000000000  0.03201124999999998 -0.05236949999999997  0.12438343749999990 -0.07855821874999992  0.09255176562499988 -0.07147373437499992
 0.00000000000000000  0.03201124999999998 -0.05236949999999997  0.12438343749999990 -0.07855821874999992  0.09255176562499988 -0.07147373437499992
 0.02911349999999999 -0.03201124999999998 -0.05236949999999997  0.12438343749999990 -0.07855821874999992  0.09255176562499988 -0.07147373437499992
-0.02911349999999999 -0.03201124999999998 -0.05236949999999997  0.12438343749999990 -0.07855821874999992  0.09255176562499988 -0.07147373437499992
 0.01745450000000000  0.01163649999999999  0.07127262499999996 -0.12438343749999990 -0.07855821874999992  0.09255176562499988 -0.07147373437499992
-0.01745450000000000  0.01163649999999999  0.07127262499999996 -0.12438343749999990 -0.07855821874999992  0.09255176562499988 -0.07147373437499992
 0.01745449999999999 -0.01163649999999999  0.07127262499999996 -0.12438343749999990 -0.07855821874999992  0.09255176562499988 -0.07147373437499992
-0.01745449999999999 -0.01163649999999999  0.07127262499999996 -0.12438343749999990 -0.07855821874999992  0.09255176562499988 -0.07147373437499992
 0.01745449999999998  0.02618175000000000 -0.07127262499999996 -0.12438343749999990 -0.07855821874999992  0.09255176562499988 -0.07147373437499992
-0.01745449999999998  0.02618175000000000 -0.07127262499999996 -0.12438343749999990 -0.07855821874999992  0.09255176562499988 -0.07147373437499992
-0.00000000000000000 -0.02618175000000000 -0.07127262499999996 -0.12438343749999990 -0.07855821874999992  0.09255176562499988 -0.07147373437499992
 0.00000000000000000 -0.02618175000000000 -0.07127262499999996 -0.12438343749999990 -0.07855821874999992  0.09255176562499988 -0.07147373437499992
 0.00581850000000001 -0.01163624999999999 -0.03781812499999999 -0.08581824999999996 -0.09929118749999990 -0.06819323437499993 -0.01728845312499998
-0.00581850000000001 -0.01163624999999999 -0.03781812499999999 -0.08581824999999996 -0.09929118749999990 -0.06819323437499993 -0.01728845312499998
 0.00581799999999999  0.01163624999999999 -0.03781812499999999 -0.08581824999999996 -0.09929118749999990 -0.06819323437499993 -0.01728845312499998
-0.00581799999999999  0.01163624999999999 -0.03781812499999999 -0.08581824999999996 -0.09929118749999990 -0.06819323437499993 -0.01728845312499998
-0.00000000000000000 -0.03490899999999997  0.03781812499999999 -0.08581824999999996 -0.09929118749999990 -0.06819323437499993 -0.01728845312499998
 0.00000000000000000 -0.03490899999999997  0.03781812499999999 -0.08581824999999996 -0.09929118749999990 -0.06819323437499993 -0.01728845312499998
-0.03490900000000000  0.03490899999999997  0.03781812499999999 -0.08581824999999996 -0.09929118749999990 -0.06819323437499993 -0.01728845312499998
 0.03490900000000000  0.03490899999999997  0.03781812499999999 -0.08581824999999996 -0.09929118749999990 -0.06819323437499993 -0.01728845312499998
-0.01745500000000000  0.00581825000000001 -0.05236362499999999  0.08581824999999996 -0.09929118749999990 -0.06819323437499993 -0.01728845312499998
 0.01745500000000000  0.00581825000000001 -0.05236362499999999  0.08581824999999996 -0.09929118749999990 -0.06819323437499993 -0.01728845312499998
-0.00581849999999999 -0.00581825000000001 -0.05236362499999999  0.08581824999999996 -0.09929118749999990 -0.06819323437499993 -0.01728845312499998
 0.00581849999999999 -0.00581825000000001 -0.05236362499999999  0.08581824999999996 -0.09929118749999990 -0.06819323437499993 -0.01728845312499998
-0.01745450000000000 -0.01745449999999999  0.05236362499999999  0.08581824999999996 -0.09929118749999990 -0.06819323437499993 -0.01728845312499998
 0.01745450000000000 -0.01745449999999999  0.05236362499999999  0.08581824999999996 -0.09929118749999990 -0.06819323437499993 -0.01728845312499998
-0.00581850000000000  0.01745449999999999  0.05236362499999999  0.08581824999999996 -0.09929118749999990 -0.06819323437499993 -0.01728845312499998
 0.00581850000000000  0.01745449999999999  0.05236362499999999  0.08581824999999996 -0.09929118749999990 -0.06819323437499993 -0.01728845312499998
-0.02911349999999999  0.00872725000000000 -0.00000575000000000 -0.00509950000000000  0.09929118749999990 -0.06819323437499993 -0.01728845312499998
 0.02911349999999999  0.00872725000000000 -0.00000575000000000 -0.00509950000000000  0.09929118749999990 -0.06819323437499993 -0.01728845312499998
 0.01165900000000000 -0.00872725000000000 -0.00000575000000000 -0.00509950000000000  0.09929118749999990 -0.06819323437499993 -0.01728845312499998
-0.01165900000000000 -0.00872725000000000 -0.00000575000000000 -0.00509950000000000  0.09929118749999990 -0.06819323437499993 -0.01728845312499998
 0.01165900000000000 -0.00873875000000000  0.00000575000000000 -0.00509950000000000  0.09929118749999990 -0.06819323437499993 -0.01728845312499998
-0.01165900000000000 -0.00873875000000000  0.00000575000000000 -0.00509950000000000  0.09929118749999990 -0.06819323437499993 -0.01728845312499998
-0.00581850000000000  0.00873875000000000  0.00000575000000000 -0.00509950000000000  0.09929118749999990 -0.06819323437499993 -0.01728845312499998
 0.00581850000000000  0.00873875000000000  0.00000575000000000 -0.00509950000000000  0.09929118749999990 -0.06819323437499993 -0.01728845312499998
-0.00581800000000000  0.01163650000000000 -0.00145450000000000  0.00509950000000000  0.09929118749999990 -0.06819323437499993 -0.01728845312499998
 0.00581800000000000  0.01163650000000000 -0.00145450000000000  0.00509950000000000  0.09929118749999990 -0.06819323437499993 -0.01728845312499998
-0.00581800000000000 -0.01163650000000000 -0.00145450000000000  0.00509950000000000  0.09929118749999990 -0.06819323437499993 -0.01728845312499998
 0.00581800000000000 -0.01163650000000000 -0.00145450000000000  0.00509950000000000  0.09929118749999990 -0.06819323437499993 -0.01728845312499998
 0.00581800000000000 -0.01454550000000000  0.00145450000000000  0.00509950000000000  0.09929118749999990 -0.06819323437499993 -0.01728845312499998
-0.00581800000000000 -0.01454550000000000  0.00145450000000000  0.00509950000000000  0.09929118749999990 -0.06819323437499993 -0.01728845312499998
-0.00000000000000000  0.01454550000000000  0.00145450000000000  0.00509950000000000  0.09929118749999990 -0.06819323437499993 -0.01728845312499998
 0.00000000000000000  0.01454550000000000  0.00145450000000000  0.00509950000000000  0.09929118749999990 -0.06819323437499993 -0.01728845312499998
-0.01745450000000000  0.00582950000000000 -0.01600574999999999 -0.00582093750000000 -0.01745309374999999  0.06819323437499993 -0.01728845312499998
 0.01745450000000000  0.00582950000000000 -0.01600574999999999 -0.00582093750000000 -0.01745309374999999  0.06819323437499993 -0.01728845312499998
-0.02911349999999999 -0.00582950000000000 -0.01600574999999999 -0.00582093750000000 -0.01745309374999999  0.06819323437499993 -0.01728845312499998
 0.02911349999999999 -0.00582950000000000 -0.01600574999999999 -0.00582093750000000 -0.01745309374999999  0.06819323437499993 -0.01728845312499998
 0.00581800000000000  0.02036349999999999  0.01600574999999999 -0.00582093750000000 -0.01745309374999999  0.06819323437499993 -0.01728845312499998
-0.00581800000000000  0.02036349999999999  0.01600574999999999 -0.00582093750000000 -0.01745309374999999  0.06819323437499993 -0.01728845312499998
-0.00000000000000000 -0.02036349999999999  0.01600574999999999 -0.00582093750000000 -0.01745309374999999  0.06819323437499993 -0.01728845312499998
 0.00000000000000000 -0.02036349999999999  0.01600574999999999 -0.00582093750000000 -0.01745309374999999  0.06819323437499993 -0.01728845312499998
-0.01745450000000000  0.01163649999999999  0.02472737499999998  0.00582093750000000 -0.01745309374999999  0.06819323437499993 -0.01728845312499998
 0.01745450000000000  0.01163649999999999  0.02472737499999998  0.00582093750000000 -0.01745309374999999  0.06819323437499993 -0.01728845312499998
 0.00581850000000000 -0.01163649999999999  0.02472737499999998  0.00582093750000000 -0.01745309374999999  0.06819323437499993 -0.01728845312499998
-0.00581850000000000 -0.01163649999999999  0.02472737499999998  0.00582093750000000 -0.01745309374999999  0.06819323437499993 -0.01728845312499998
-0.00000000000000000 -0.00290925000000000 -0.02472737499999998  0.00582093750000000 -0.01745309374999999  0.06819323437499993 -0.01728845312499998
 0.00000000000000000 -0.00290925000000000 -0.02472737499999998  0.00582093750000000 -0.01745309374999999  0.06819323437499993 -0.01728845312499998
-0.00581850000000000  0.00290925000000000 -0.02472737499999998  0.00582093750000000 -0.01745309374999999  0.06819323437499993 -0.01728845312499998
 0.00581850000000000  0.00290925000000000 -0.02472737499999998  0.00582093750000000 -0.01745309374999999  0.06819323437499993 -0.01728845312499998
 0.00581850000000000 -0.01165899999999999 -0.01746599999999999 -0.04509637499999997  0.01745309374999999  0.06819323437499993 -0.01728845312499998
-0.00581850000000000 -0.01165899999999999 -0.01746599999999999 -0.04509637499999997  0.01745309374999999  0.06819323437499993 -0.01728845312499998
-0.00581850000000000  0.01165899999999999 -0.01746599999999999 -0.04509637499999997  0.01745309374999999  0.06819323437499993 -0.01728845312499998
 0.00581850000000000  0.01165899999999999 -0.01746599999999999 -0.04509637499999997  0.01745309374999999  0.06819323437499993 -0.01728845312499998
 0.01745449999999999 -0.00000000000000000  0.01746599999999999 -0.04509637499999997  0.01745309374999999  0.06819323437499993 -0.01728845312499998
-0.01745449999999999 -0.00000000000000000  0.01746599999999999 -0.04509637499999997  0.01745309374999999  0.06819323437499993 -0.01728845312499998
-0.01745449999999999  0.00000000000000000  0.01746599999999999 -0.04509637499999997  0.01745309374999999  0.06819323437499993 -0.01728845312499998
 0.01745449999999999  0.00000000000000000  0.01746599999999999 -0.04509637499999997  0.01745309374999999  0.06819323437499993 -0.01728845312499998
 0.01745450000000000 -0.01745450000000000 -0.04363624999999997  0.04509637499999997  0.01745309374999999  0.06819323437499993 -0.01728845312499998
-0.01745450000000000 -0.01745450000000000 -0.04363624999999997  0.04509637499999997  0.01745309374999999  0.06819323437499993 -0.01728845312499998
-0.01745449999999999  0.01745450000000000 -0.04363624999999997  0.04509637499999997  0.01745309374999999  0.06819323437499993 -0.01728845312499998
 0.01745449999999999  0.01745450000000000 -0.04363624999999997  0.04509637499999997  0.01745309374999999  0.06819323437499993 -0.01728845312499998
-0.01745449999999999 -0.00000000000000000  0.04363624999999997  0.04509637499999997  0.01745309374999999  0.06819323437499993 -0.01728845312499998
 0.01745449999999999 -0.00000000000000000  0.04363624999999997  0.04509637499999997  0.01745309374999999  0.06819323437499993 -0.01728845312499998
 0.01745449999999999  0.00000000000000000  0.04363624999999997  0.04509637499999997  0.01745309374999999  0.06819323437499993 -0.01728845312499998
-0.01745449999999999  0.00000000000000000  0.04363624999999997  0.04509637499999997  0.01745309374999999  0.06819323437499993 -0.01728845312499998
 0.03490900000000000  0.05236349999999999  0.02618174999999999  0.03492037499999998  0.05455534374999994 -0.12237353124999989  0.09398856249999990
-0.03490900000000000  0.05236349999999999  0.02618174999999999  0.03492037499999998  0.05455534374999994 -0.12237353124999989  0.09398856249999990
 0.03490900000000000 -0.05236349999999999  0.02618174999999999  0.03492037499999998  0.05455534374999994 -0.12237353124999989  0.09398856249999990
-0.03490900000000000 -0.05236349999999999  0.02618174999999999  0.03492037499999998  0.05455534374999994 -0.12237353124999989  0.09398856249999990
 0.01745450000000000  0.01745449999999999 -0.02618174999999999  0.03492037499999998  0.05455534374999994 -0.12237353124999989  0.09398856249999990
-0.01745450000000000  0.01745449999999999 -0.02618174999999999  0.03492037499999998  0.05455534374999994 -0.12237353124999989  0.09398856249999990
 0.01745450000000000 -0.01745449999999999 -0.02618174999999999  0.03492037499999998  0.05455534374999994 -0.12237353124999989  0.09398856249999990
-0.01745450000000000 -0.01745449999999999 -0.02618174999999999  0.03492037499999998  0.05455534374999994 -0.12237353124999989  0.09398856249999990
 0.02911349999999999 -0.00582950000000000  0.02037499999999999 -0.03492037499999998  0.05455534374999994 -0.12237353124999989  0.09398856249999990
-0.02911349999999999 -0.00582950000000000  0.02037499999999999 -0.03492037499999998  0.05455534374999994 -0.12237353124999989  0.09398856249999990
 0.01745450000000000  0.00582950000000000  0.02037499999999999 -0.03492037499999998  0.05455534374999994 -0.12237353124999989  0.09398856249999990
-0.01745450000000000  0.00582950000000000  0.02037499999999999 -0.03492037499999998  0.05455534374999994 -0.12237353124999989  0.09398856249999990
 0.00581850000000000  0.02326149999999999 -0.02037499999999999 -0.03492037499999998  0.05455534374999994 -0.12237353124999989  0.09398856249999990
-0.00581850000000000  0.02326149999999999 -0.02037499999999999 -0.03492037499999998  0.05455534374999994 -0.12237353124999989  0.09398856249999990
 0.06402250000000000 -0.02326149999999999 -0.02037499999999999 -0.03492037499999998  0.05455534374999994 -0.12237353124999989  0.09398856249999990
-0.06402250000000000 -0.02326149999999999 -0.02037499999999999 -0.03492037499999998  0.05455534374999994 -0.12237353124999989  0.09398856249999990
-0.03490900000000000 -0.05236349999999999 -0.31274999999999980  0.33164481249999980 -0.05455534374999994 -0.12237353124999989  0.09398856249999990
 0.03490900000000000 -0.05236349999999999 -0.31274999999999980  0.33164481249999980 -0.05455534374999994 -0.12237353124999989  0.09398856249999990
-0.00000000000000000  0.05236349999999999 -0.31274999999999980  0.33164481249999980 -0.05455534374999994 -0.12237353124999989  0.09398856249999990
 0.00000000000000000  0.05236349999999999 -0.31274999999999980  0.33164481249999980 -0.05455534374999994 -0.12237353124999989  0.09398856249999990
-0.12218199999999999 -0.39272749999999984  0.31274999999999980  0.33164481249999980 -0.05455534374999994 -0.12237353124999989  0.09398856249999990
 0.12218199999999999 -0.39272749999999984  0.31274999999999980  0.33164481249999980 -0.05455534374999994 -0.12237353124999989  0.09398856249999990
-0.22109099999999995  0.39272749999999984  0.31274999999999980  0.33164481249999980 -0.05455534374999994 -0.12237353124999989  0.09398856249999990
 0.22109099999999995  0.39272749999999984  0.31274999999999980  0.33164481249999980 -0.05455534374999994 -0.12237353124999989  0.09398856249999990
 0.40147750000000000  0.64292024999999970  0.10327837499999988 -0.33164481249999980 -0.05455534374999994 -0.12237353124999989  0.09398856249999990
-0.40147750000000000  0.64292024999999970  0.10327837499999988 -0.33164481249999980 -0.05455534374999994 -0.12237353124999989  0.09398856249999990
 0.06981800000000009 -0.64292024999999970  0.10327837499999988 -0.33164481249999980 -0.05455534374999994 -0.12237353124999989  0.09398856249999990
-0.06981800000000009 -0.64292024999999970  0.10327837499999988 -0.33164481249999980 -0.05455534374999994 -0.12237353124999989  0.09398856249999990
-0.12218199999999996 -0.24436349999999984 -0.10327837499999988 -0.33164481249999980 -0.05455534374999994 -0.12237353124999989  0.09398856249999990
 0.12218199999999996 -0.24436349999999984 -0.10327837499999988 -0.33164481249999980 -0.05455534374999994 -0.12237353124999989  0.09398856249999990
-0.12218199999999996  0.24436349999999984 -0.10327837499999988 -0.33164481249999980 -0.05455534374999994 -0.12237353124999989  0.09398856249999990
 0.12218199999999996  0.24436349999999984 -0.10327837499999988 -0.33164481249999980 -0.05455534374999994 -0.12237353124999989  0.09398856249999990
-0.00000000000000000  0.04073899999999998 -0.05527837499999997 -0.09527549999999996 -0.02509221874999996  0.12237353124999989  0.09398856249999990
 0.00000000000000000  0.04073899999999998 -0.05527837499999997 -0.09527549999999996 -0.02509221874999996  0.12237353124999989  0.09398856249999990
 0.01165900000000000 -0.04073899999999998 -0.05527837499999997 -0.09527549999999996 -0.02509221874999996  0.12237353124999989  0.09398856249999990
-0.01165900000000000 -0.04073899999999998 -0.05527837499999997 -0.09527549999999996 -0.02509221874999996  0.12237353124999989  0.09398856249999990
-0.06981800000000000  0.03490924999999999  0.05527837499999997 -0.09527549999999996 -0.02509221874999996  0.12237353124999989  0.09398856249999990
 0.06981800000000000  0.03490924999999999  0.05527837499999997 -0.09527549999999996 -0.02509221874999996  0.12237353124999989  0.09398856249999990
 0.06981849999999999 -0.03490924999999999  0.05527837499999997 -0.09527549999999996 -0.02509221874999996  0.12237353124999989  0.09398856249999990
-0.06981849999999999 -0.03490924999999999  0.05527837499999997 -0.09527549999999996 -0.02509221874999996  0.12237353124999989  0.09398856249999990
-0.01745450000000000 -0.06981799999999998 -0.01309087499999997  0.09527549999999996 -0.02509221874999996  0.12237353124999989  0.09398856249999990
 0.01745450000000000 -0.06981799999999998 -0.01309087499999997  0.09527549999999996 -0.02509221874999996  0.12237353124999989  0.09398856249999990
 0.01745450000000002  0.06981799999999998 -0.01309087499999997  0.09527549999999996 -0.02509221874999996  0.12237353124999989  0.09398856249999990
-0.01745450000000002  0.06981799999999998 -0.01309087499999997  0.09527549999999996 -0.02509221874999996  0.12237353124999989  0.09398856249999990
 0.03490900000000002  0.02618175000000000  0.01309087499999997  0.09527549999999996 -0.02509221874999996  0.12237353124999989  0.09398856249999990
-0.03490900000000002  0.02618175000000000  0.01309087499999997  0.09527549999999996 -0.02509221874999996  0.12237353124999989  0.09398856249999990
 0.00581850000000001 -0.02618175000000000  0.01309087499999997  0.09527549999999996 -0.02509221874999996  0.12237353124999989  0.09398856249999990
-0.00581850000000001 -0.02618175000000000  0.01309087499999997  0.09527549999999996 -0.02509221874999996  0.12237353124999989  0.09398856249999990
 0.01745450000000000  0.05236349999999997 -0.00000000000000002 -0.00872731249999997  0.02509221874999996  0.12237353124999989  0.09398856249999990
-0.01745450000000000  0.05236349999999997 -0.00000000000000002 -0.00872731249999997  0.02509221874999996  0.12237353124999989  0.09398856249999990
 0.01745450000000000 -0.05236349999999997 -0.00000000000000002 -0.00872731249999997  0.02509221874999996  0.12237353124999989  0.09398856249999990
-0.01745450000000000 -0.05236349999999997 -0.00000000000000002 -0.00872731249999997  0.02509221874999996  0.12237353124999989  0.09398856249999990
-0.03490899999999999 -0.00000000000000000  0.00000000000000002 -0.00872731249999997  0.02509221874999996  0.12237353124999989  0.09398856249999990
 0.03490899999999999 -0.00000000000000000  0.00000000000000002 -0.00872731249999997  0.02509221874999996  0.12237353124999989  0.09398856249999990
 0.06981799999999999  0.00000000000000000  0.00000000000000002 -0.00872731249999997  0.02509221874999996  0.12237353124999989  0.09398856249999990
-0.06981799999999999  0.00000000000000000  0.00000000000000002 -0.00872731249999997  0.02509221874999996  0.12237353124999989  0.09398856249999990
-0.01745499999999999 -0.02327274999999997 -0.03490887499999997  0.00872731249999997  0.02509221874999996  0.12237353124999989  0.09398856249999990
 0.01745499999999999 -0.02327274999999997 -0.03490887499999997  0.00872731249999997  0.02509221874999996  0.12237353124999989  0.09398856249999990
 0.00581850000000001  0.02327274999999997 -0.03490887499999997  0.00872731249999997  0.02509221874999996  0.12237353124999989  0.09398856249999990
-0.00581850000000001  0.02327274999999997 -0.03490887499999997  0.00872731249999997  0.02509221874999996  0.12237353124999989  0.09398856249999990
-0.00000000000000000  0.01745450000000001  0.03490887499999997  0.00872731249999997  0.02509221874999996  0.12237353124999989  0.09398856249999990
 0.00000000000000000  0.01745450000000001  0.03490887499999997  0.00872731249999997  0.02509221874999996  0.12237353124999989  0.09398856249999990
-0.03490900000000000 -0.01745450000000001  0.03490887499999997  0.00872731249999997  0.02509221874999996  0.12237353124999989  0.09398856249999990
 0.03490900000000000 -0.01745450000000001  0.03490887499999997  0.00872731249999997  0.02509221874999996  0.12237353124999989  0.09398856249999990
-0.00000000000000000  0.01745449999999999  0.09310212499999992  0.16074137499999988 -0.00546021875000000 -0.13364629687499985  0.13544451562499987
 0.00000000000000000  0.01745449999999999  0.09310212499999992  0.16074137499999988 -0.00546021875000000 -0.13364629687499985  0.13544451562499987
-0.00000000000000000 -0.01745449999999999  0.09310212499999992  0.16074137499999988 -0.00546021875000000 -0.13364629687499985  0.13544451562499987
 0.00000000000000000 -0.01745449999999999  0.09310212499999992  0.16074137499999988 -0.00546021875000000 -0.13364629687499985  0.13544451562499987
 0.03490900000000000  0.09893174999999997 -0.09310212499999992  0.16074137499999988 -0.00546021875000000 -0.13364629687499985  0.13544451562499987
-0.03490900000000000  0.09893174999999997 -0.09310212499999992  0.16074137499999988 -0.00546021875000000 -0.13364629687499985  0.13544451562499987
 0.03490949999999999 -0.09893174999999997 -0.09310212499999992  0.16074137499999988 -0.00546021875000000 -0.13364629687499985  0.13544451562499987
-0.03490949999999999 -0.09893174999999997 -0.09310212499999992  0.16074137499999988 -0.00546021875000000 -0.13364629687499985  0.13544451562499987
 0.06402299999999998  0.15128399999999992  0.00727837500000001 -0.16074137499999988 -0.00546021875000000 -0.13364629687499985  0.13544451562499987
-0.06402299999999998  0.15128399999999992  0.00727837500000001 -0.16074137499999988 -0.00546021875000000 -0.13364629687499985  0.13544451562499987
-0.00581799999999999 -0.15128399999999992  0.00727837500000001 -0.16074137499999988 -0.00546021875000000 -0.13364629687499985  0.13544451562499987
 0.00581799999999999 -0.15128399999999992  0.00727837500000001 -0.16074137499999988 -0.00546021875000000 -0.13364629687499985  0.13544451562499987
-0.01745449999999998 -0.07854574999999997 -0.00727837500000001 -0.16074137499999988 -0.00546021875000000 -0.13364629687499985  0.13544451562499987
 0.01745449999999998 -0.07854574999999997 -0.00727837500000001 -0.16074137499999988 -0.00546021875000000 -0.13364629687499985  0.13544451562499987
-0.00000000000000000  0.07854574999999997 -0.00727837500000001 -0.16074137499999988 -0.00546021875000000 -0.13364629687499985  0.13544451562499987
 0.00000000000000000  0.07854574999999997 -0.00727837500000001 -0.16074137499999988 -0.00546021875000000 -0.13364629687499985  0.13544451562499987
 0.06981849999999998  0.03490924999999998 -0.14256812499999990 -0.09746306249999990  0.00546021875000000 -0.13364629687499985  0.13544451562499987
-0.06981849999999998  0.03490924999999998 -0.14256812499999990 -0.09746306249999990  0.00546021875000000 -0.13364629687499985  0.13544451562499987
-0.03490899999999999 -0.03490924999999998 -0.14256812499999990 -0.09746306249999990  0.00546021875000000 -0.13364629687499985  0.13544451562499987
 0.03490899999999999 -0.03490924999999998 -0.14256812499999990 -0.09746306249999990  0.00546021875000000 -0.13364629687499985  0.13544451562499987
-0.03490900000000000 -0.01745449999999999  0.14256812499999990 -0.09746306249999990  0.00546021875000000 -0.13364629687499985  0.13544451562499987
 0.03490900000000000 -0.01745449999999999  0.14256812499999990 -0.09746306249999990  0.00546021875000000 -0.13364629687499985  0.13544451562499987
 0.03490899999999999  0.01745449999999999  0.14256812499999990 -0.09746306249999990  0.00546021875000000 -0.13364629687499985  0.13544451562499987
-0.03490899999999999  0.01745449999999999  0.14256812499999990 -0.09746306249999990  0.00546021875000000 -0.13364629687499985  0.13544451562499987
-0.03490949999999999 -0.06981824999999997  0.04655124999999997  0.09746306249999990  0.00546021875000000 -0.13364629687499985  0.13544451562499987
 0.03490949999999999 -0.06981824999999997  0.04655124999999997  0.09746306249999990  0.00546021875000000 -0.13364629687499985  0.13544451562499987
 0.03490900000000000  0.06981824999999997  0.04655124999999997  0.09746306249999990  0.00546021875000000 -0.13364629687499985  0.13544451562499987
-0.03490900000000000  0.06981824999999997  0.04655124999999997  0.09746306249999990  0.00546021875000000 -0.13364629687499985  0.13544451562499987
 0.06981849999999999  0.05819324999999997 -0.04655124999999997  0.09746306249999990  0.00546021875000000 -0.13364629687499985  0.13544451562499987
-0.06981849999999999  0.05819324999999997 -0.04655124999999997  0.09746306249999990  0.00546021875000000 -0.13364629687499985  0.13544451562499987
-0.01165900000000000 -0.05819324999999997 -0.04655124999999997  0.09746306249999990  0.00546021875000000 -0.13364629687499985  0.13544451562499987
 0.01165900000000000 -0.05819324999999997 -0.04655124999999997  0.09746306249999990  0.00546021875000000 -0.13364629687499985  0.13544451562499987
-0.03490900000000000 -0.05527250000000000 -0.00290900000000000 -0.00799999999999999 -0.01672731250000001  0.13364629687499985  0.13544451562499987
 0.03490900000000000 -0.05527250000000000 -0.00290900000000000 -0.00799999999999999 -0.01672731250000001  0.13364629687499985  0.13544451562499987
-0.00581800000000001  0.05527250000000000 -0.00290900000000000 -0.00799999999999999 -0.01672731250000001  0.13364629687499985  0.13544451562499987
 0.00581800000000001  0.05527250000000000 -0.00290900000000000 -0.00799999999999999 -0.01672731250000001  0.13364629687499985  0.13544451562499987
-0.03490900000000002  0.07854549999999998  0.00290900000000000 -0.00799999999999999 -0.01672731250000001  0.13364629687499985  0.13544451562499987
 0.03490900000000002  0.07854549999999998  0.00290900000000000 -0.00799999999999999 -0.01672731250000001  0.13364629687499985  0.13544451562499987
 0.12218199999999999 -0.07854549999999998  0.00290900000000000 -0.00799999999999999 -0.01672731250000001  0.13364629687499985  0.13544451562499987
-0.12218199999999999 -0.07854549999999998  0.00290900000000000 -0.00799999999999999 -0.01672731250000001  0.13364629687499985  0.13544451562499987
-0.12218199999999999 -0.08145449999999997 -0.04509099999999995  0.00799999999999999 -0.01672731250000001  0.13364629687499985  0.13544451562499987
 0.12218199999999999 -0.08145449999999997 -0.04509099999999995  0.00799999999999999 -0.01672731250000001  0.13364629687499985  0.13544451562499987
-0.00581800000000001  0.08145449999999997 -0.04509099999999995  0.00799999999999999 -0.01672731250000001  0.13364629687499985  0.13544451562499987
 0.00581800000000001  0.08145449999999997 -0.04509099999999995  0.00799999999999999 -0.01672731250000001  0.13364629687499985  0.13544451562499987
-0.00000000000000000 -0.07272749999999997  0.04509099999999995  0.00799999999999999 -0.01672731250000001  0.13364629687499985  0.13544451562499987
 0.00000000000000000 -0.07272749999999997  0.04509099999999995  0.00799999999999999 -0.01672731250000001  0.13364629687499985  0.13544451562499987
-0.00581800000000001  0.07272749999999997  0.04509099999999995  0.00799999999999999 -0.01672731250000001  0.13364629687499985  0.13544451562499987
 0.00581800000000001  0.07272749999999997  0.04509099999999995  0.00799999999999999 -0.01672731250000001  0.13364629687499985  0.13544451562499987
 0.06981799999999999 -0.09599999999999996 -0.03927274999999998 -0.08072737499999993  0.01672731250000001  0.13364629687499985  0.13544451562499987
-0.06981799999999999 -0.09599999999999996 -0.03927274999999998 -0.08072737499999993  0.01672731250000001  0.13364629687499985  0.13544451562499987
-0.12218199999999999  0.09599999999999996 -0.03927274999999998 -0.08072737499999993  0.01672731250000001  0.13364629687499985  0.13544451562499987
 0.12218199999999999  0.09599999999999996 -0.03927274999999998 -0.08072737499999993  0.01672731250000001  0.13364629687499985  0.13544451562499987
 0.06981799999999998  0.10472749999999996  0.03927274999999998 -0.08072737499999993  0.01672731250000001  0.13364629687499985  0.13544451562499987
-0.06981799999999998  0.10472749999999996  0.03927274999999998 -0.08072737499999993  0.01672731250000001  0.13364629687499985  0.13544451562499987
-0.00000000000000000 -0.10472749999999996  0.03927274999999998 -0.08072737499999993  0.01672731250000001  0.13364629687499985  0.13544451562499987
 0.00000000000000000 -0.10472749999999996  0.03927274999999998 -0.08072737499999993  0.01672731250000001  0.13364629687499985  0.13544451562499987
-0.00000000000000000 -0.00000000000000000 -0.08727249999999998  0.08072737499999993  0.01672731250000001  0.13364629687499985  0.13544451562499987
 0.00000000000000000 -0.00000000000000000 -0.08727249999999998  0.08072737499999993  0.01672731250000001  0.13364629687499985  0.13544451562499987
-0.03490900000000000  0.00000000000000000 -0.08727249999999998  0.08072737499999993  0.01672731250000001  0.13364629687499985  0.13544451562499987
 0.03490900000000000  0.00000000000000000 -0.08727249999999998  0.08072737499999993  0.01672731250000001  0.13364629687499985  0.13544451562499987
-0.03490899999999997  0.03490899999999996  0.08727249999999998  0.08072737499999993  0.01672731250000001  0.13364629687499985  0.13544451562499987
 0.03490899999999997  0.03490899999999996  0.08727249999999998  0.08072737499999993  0.01672731250000001  0.13364629687499985  0.13544451562499987
 0.03490900000000000 -0.03490899999999996  0.08727249999999998  0.08072737499999993  0.01672731250000001  0.13364629687499985  0.13544451562499987
-0.03490900000000000 -0.03490899999999996  0.08727249999999998  0.08072737499999993  0.01672731250000001  0.13364629687499985  0.13544451562499987
 0.03490950000000000 -0.00581825000000000 -0.10763637499999996 -0.04945449999999996 -0.01527278125000003  0.00545879687500006  0.38217760937499956
-0.03490950000000000 -0.00581825000000000 -0.10763637499999996 -0.04945449999999996 -0.01527278125000003  0.00545879687500006  0.38217760937499956
-0.03490900000000000  0.00581825000000000 -0.10763637499999996 -0.04945449999999996 -0.01527278125000003  0.00545879687500006  0.38217760937499956
 0.03490900000000000  0.00581825000000000 -0.10763637499999996 -0.04945449999999996 -0.01527278125000003  0.00545879687500006  0.38217760937499956
-0.06981850000000000 -0.03490899999999996  0.10763637499999996 -0.04945449999999996 -0.01527278125000003  0.00545879687500006  0.38217760937499956
 0.06981850000000000 -0.03490899999999996  0.10763637499999996 -0.04945449999999996 -0.01527278125000003  0.00545879687500006  0.38217760937499956
 0.06981849999999996  0.03490899999999996  0.10763637499999996 -0.04945449999999996 -0.01527278125000003  0.00545879687500006  0.38217760937499956
-0.06981849999999996  0.03490899999999996  0.10763637499999996 -0.04945449999999996 -0.01527278125000003  0.00545879687500006  0.38217760937499956
-0.06981799999999998 -0.00872699999999993  0.12218187499999995  0.04945449999999996 -0.01527278125000003  0.00545879687500006  0.38217760937499956
 0.06981799999999998 -0.00872699999999993  0.12218187499999995  0.04945449999999996 -0.01527278125000003  0.00545879687500006  0.38217760937499956
 0.12218199999999996  0.00872699999999993  0.12218187499999995  0.04945449999999996 -0.01527278125000003  0.00545879687500006  0.38217760937499956
-0.12218199999999996  0.00872699999999993  0.12218187499999995  0.04945449999999996 -0.01527278125000003  0.00545879687500006  0.38217760937499956
-0.01745450000000000  0.00872724999999999 -0.12218187499999995  0.04945449999999996 -0.01527278125000003  0.00545879687500006  0.38217760937499956
 0.01745450000000000  0.00872724999999999 -0.12218187499999995  0.04945449999999996 -0.01527278125000003  0.00545879687500006  0.38217760937499956
 0.06981800000000000 -0.00872724999999999 -0.12218187499999995  0.04945449999999996 -0.01527278125000003  0.00545879687500006  0.38217760937499956
-0.06981800000000000 -0.00872724999999999 -0.12218187499999995  0.04945449999999996 -0.01527278125000003  0.00545879687500006  0.38217760937499956
-0.06981799999999999 -0.08727249999999999  0.07127262499999995 -0.10763631249999994  0.01527278125000003  0.00545879687500006  0.38217760937499956
 0.06981799999999999 -0.08727249999999999  0.07127262499999995 -0.10763631249999994  0.01527278125000003  0.00545879687500006  0.38217760937499956
 0.03490900000000000  0.08727249999999999  0.07127262499999995 -0.10763631249999994  0.01527278125000003  0.00545879687500006  0.38217760937499956
-0.03490900000000000  0.08727249999999999  0.07127262499999995 -0.10763631249999994  0.01527278125000003  0.00545879687500006  0.38217760937499956
 0.03490900000000000  0.02036374999999998 -0.07127262499999995 -0.10763631249999994  0.01527278125000003  0.00545879687500006  0.38217760937499956
-0.03490900000000000  0.02036374999999998 -0.07127262499999995 -0.10763631249999994  0.01527278125000003  0.00545879687500006  0.38217760937499956
-0.00581849999999999 -0.02036374999999998 -0.07127262499999995 -0.10763631249999994  0.01527278125000003  0.00545879687500006  0.38217760937499956
 0.00581849999999999 -0.02036374999999998 -0.07127262499999995 -0.10763631249999994  0.01527278125000003  0.00545879687500006  0.38217760937499956
-0.03490900000000000 -0.05236350000000000 -0.17890899999999987  0.10763631249999994  0.01527278125000003  0.00545879687500006  0.38217760937499956
 0.03490900000000000 -0.05236350000000000 -0.17890899999999987  0.10763631249999994  0.01527278125000003  0.00545879687500006  0.38217760937499956
-0.00000000000000000  0.05236350000000000 -0.17890899999999987  0.10763631249999994  0.01527278125000003  0.00545879687500006  0.38217760937499956
 0.00000000000000000  0.05236350000000000 -0.17890899999999987  0.10763631249999994  0.01527278125000003  0.00545879687500006  0.38217760937499956
-0.00581800000000003 -0.33454549999999990  0.17890899999999987  0.10763631249999994  0.01527278125000003  0.00545879687500006  0.38217760937499956
 0.00581800000000003 -0.33454549999999990  0.17890899999999987  0.10763631249999994  0.01527278125000003  0.00545879687500006  0.38217760937499956
-0.22109099999999995  0.33454549999999990  0.17890899999999987  0.10763631249999994  0.01527278125000003  0.00545879687500006  0.38217760937499956
 0.22109099999999995  0.33454549999999990  0.17890899999999987  0.10763631249999994  0.01527278125000003  0.00545879687500006  0.38217760937499956
 0.40727300000000000  0.62256824999999980  0.20219312499999990 -0.27856237499999975 -0.22473581249999980 -0.00545879687500006  0.38217760937499956
-0.40727300000000000  0.62256824999999980  0.20219312499999990 -0.27856237499999975 -0.22473581249999980 -0.00545879687500006  0.38217760937499956
 0.03490950000000004 -0.62256824999999980  0.20219312499999990 -0.27856237499999975 -0.22473581249999980 -0.00545879687500006  0.38217760937499956
-0.03490950000000004 -0.62256824999999980  0.20219312499999990 -0.27856237499999975 -0.22473581249999980 -0.00545879687500006  0.38217760937499956
-0.03490899999999997 -0.14836349999999995 -0.20219312499999990 -0.27856237499999975 -0.22473581249999980 -0.00545879687500006  0.38217760937499956
 0.03490899999999997 -0.14836349999999995 -0.20219312499999990 -0.27856237499999975 -0.22473581249999980 -0.00545879687500006  0.38217760937499956
-0.12218199999999996  0.14836349999999995 -0.20219312499999990 -0.27856237499999975 -0.22473581249999980 -0.00545879687500006  0.38217760937499956
 0.12218199999999996  0.14836349999999995 -0.20219312499999990 -0.27856237499999975 -0.22473581249999980 -0.00545879687500006  0.38217760937499956
-0.12218199999999996 -0.06981824999999998 -0.06400012499999994  0.27856237499999975 -0.22473581249999980 -0.00545879687500006  0.38217760937499956
 0.12218199999999996 -0.06981824999999998 -0.06400012499999994  0.27856237499999975 -0.22473581249999980 -0.00545879687500006  0.38217760937499956
 0.01745450000000002  0.06981824999999998 -0.06400012499999994  0.27856237499999975 -0.22473581249999980 -0.00545879687500006  0.38217760937499956
-0.01745450000000002  0.06981824999999998 -0.06400012499999994  0.27856237499999975 -0.22473581249999980 -0.00545879687500006  0.38217760937499956
 0.00581800000000001 -0.01163649999999999  0.06400012499999994  0.27856237499999975 -0.22473581249999980 -0.00545879687500006  0.38217760937499956
-0.00581800000000001 -0.01163649999999999  0.06400012499999994  0.27856237499999975 -0.22473581249999980 -0.00545879687500006  0.38217760937499956
 0.00581800000000001  0.01163649999999999  0.06400012499999994  0.27856237499999975 -0.22473581249999980 -0.00545879687500006  0.38217760937499956
-0.00581800000000001  0.01163649999999999  0.06400012499999994  0.27856237499999975 -0.22473581249999980 -0.00545879687500006  0.38217760937499956
 0.01745449999999998  0.02618174999999994  0.01890899999999994 -0.02399987500000000  0.22473581249999980 -0.00545879687500006  0.38217760937499956
-0.01745449999999998  0.02618174999999994  0.01890899999999994 -0.02399987500000000  0.22473581249999980 -0.00545879687500006  0.38217760937499956
 0.06981799999999998 -0.02618174999999994  0.01890899999999994 -0.02399987500000000  0.22473581249999980 -0.00545879687500006  0.38217760937499956
-0.06981799999999998 -0.02618174999999994  0.01890899999999994 -0.02399987500000000  0.22473581249999980 -0.00545879687500006  0.38217760937499956
-0.01745449999999998 -0.07563624999999997 -0.01890899999999994 -0.02399987500000000  0.22473581249999980 -0.00545879687500006  0.38217760937499956
 0.01745449999999998 -0.07563624999999997 -0.01890899999999994 -0.02399987500000000  0.22473581249999980 -0.00545879687500006  0.38217760937499956
 0.00581799999999997  0.07563624999999997 -0.01890899999999994 -0.02399987500000000  0.22473581249999980 -0.00545879687500006  0.38217760937499956
-0.00581799999999997  0.07563624999999997 -0.01890899999999994 -0.02399987500000000  0.22473581249999980 -0.00545879687500006  0.38217760937499956
 0.03490950000000004 -0.03490925000000000  0.00290924999999998  0.02399987500000000  0.22473581249999980 -0.00545879687500006  0.38217760937499956
-0.03490950000000004 -0.03490925000000000  0.00290924999999998  0.02399987500000000  0.22473581249999980 -0.00545879687500006  0.38217760937499956
-0.03490899999999997  0.03490925000000000  0.00290924999999998  0.02399987500000000  0.22473581249999980 -0.00545879687500006  0.38217760937499956
 0.03490899999999997  0.03490925000000000  0.00290924999999998  0.02399987500000000  0.22473581249999980 -0.00545879687500006  0.38217760937499956
-0.03490950000000004 -0.02909075000000000 -0.00290924999999998  0.02399987500000000  0.22473581249999980 -0.00545879687500006  0.38217760937499956
 0.03490950000000004 -0.02909075000000000 -0.00290924999999998  0.02399987500000000  0.22473581249999980 -0.00545879687500006  0.38217760937499956
-0.03490899999999997  0.02909075000000000 -0.00290924999999998  0.02399987500000000  0.22473581249999980 -0.00545879687500006  0.38217760937499956
 0.03490899999999997  0.02909075000000000 -0.00290924999999998  0.02399987500000000  0.22473581249999980 -0.00545879687500006  0.38217760937499956
 0.06981799999999998  0.04363625000000004 -0.04363650000000001  0.03345456249999994  0.16254546874999990 -0.04581823437499993  0.46654545312499945
-0.06981799999999998  0.04363625000000004 -0.04363650000000001  0.03345456249999994  0.16254546874999990 -0.04581823437499993  0.46654545312499945
-0.12218150000000000 -0.04363625000000004 -0.04363650000000001  0.03345456249999994  0.16254546874999990 -0.04581823437499993  0.46654545312499945
 0.12218150000000000 -0.04363625000000004 -0.04363650000000001  0.03345456249999994  0.16254546874999990 -0.04581823437499993  0.46654545312499945
-0.00581800000000001  0.06690925000000002  0.04363650000000001  0.03345456249999994  0.16254546874999990 -0.04581823437499993  0.46654545312499945
 0.00581800000000001  0.06690925000000002  0.04363650000000001  0.03345456249999994  0.16254546874999990 -0.04581823437499993  0.46654545312499945
 0.06981850000000000 -0.06690925000000002  0.04363650000000001  0.03345456249999994  0.16254546874999990 -0.04581823437499993  0.46654545312499945
-0.06981850000000000 -0.06690925000000002  0.04363650000000001  0.03345456249999994  0.16254546874999990 -0.04581823437499993  0.46654545312499945
-0.06981849999999994 -0.10472725000000004  0.07854562499999995 -0.03345456249999994  0.16254546874999990 -0.04581823437499993  0.46654545312499945
 0.06981849999999994 -0.10472725000000004  0.07854562499999995 -0.03345456249999994  0.16254546874999990 -0.04581823437499993  0.46654545312499945
-0.06981799999999998  0.10472725000000004  0.07854562499999995 -0.03345456249999994  0.16254546874999990 -0.04581823437499993  0.46654545312499945
 0.06981799999999998  0.10472725000000004  0.07854562499999995 -0.03345456249999994  0.16254546874999990 -0.04581823437499993  0.46654545312499945
 0.06981799999999998  0.01745449999999998 -0.07854562499999995 -0.03345456249999994  0.16254546874999990 -0.04581823437499993  0.46654545312499945
-0.06981799999999998  0.01745449999999998 -0.07854562499999995 -0.03345456249999994  0.16254546874999990 -0.04581823437499993  0.46654545312499945
-0.06981799999999998 -0.01745449999999998 -0.07854562499999995 -0.03345456249999994  0.16254546874999990 -0.04581823437499993  0.46654545312499945
 0.06981799999999998 -0.01745449999999998 -0.07854562499999995 -0.03345456249999994  0.16254546874999990 -0.04581823437499993  0.46654545312499945
 0.06981799999999998  0.15709099999999995  0.06399987499999996  0.00945437500000000 -0.16254546874999990 -0.04581823437499993  0.46654545312499945
-0.06981799999999998  0.15709099999999995  0.06399987499999996  0.00945437500000000 -0.16254546874999990 -0.04581823437499993  0.46654545312499945
-0.00000000000000000 -0.15709099999999995  0.06399987499999996  0.00945437500000000 -0.16254546874999990 -0.04581823437499993  0.46654545312499945
 0.00000000000000000 -0.15709099999999995  0.06399987499999996  0.00945437500000000 -0.16254546874999990 -0.04581823437499993  0.46654545312499945
-0.01745450000000000 -0.02327275000000001 -0.06399987499999996  0.00945437500000000 -0.16254546874999990 -0.04581823437499993  0.46654545312499945
 0.01745450000000000 -0.02327275000000001 -0.06399987499999996  0.00945437500000000 -0.16254546874999990 -0.04581823437499993  0.46654545312499945
 0.00581799999999999  0.02327275000000001 -0.06399987499999996  0.00945437500000000 -0.16254546874999990 -0.04581823437499993  0.46654545312499945
-0.00581799999999999  0.02327275000000001 -0.06399987499999996  0.00945437500000000 -0.16254546874999990 -0.04581823437499993  0.46654545312499945
-0.03490900000000000 -0.01745449999999998  0.01309112499999998 -0.00945437500000000 -0.16254546874999990 -0.04581823437499993  0.46654545312499945
 0.03490900000000000 -0.01745449999999998  0.01309112499999998 -0.00945437500000000 -0.16254546874999990 -0.04581823437499993  0.46654545312499945
 0.03490900000000000  0.01745449999999998  0.01309112499999998 -0.00945437500000000 -0.16254546874999990 -0.04581823437499993  0.46654545312499945
-0.03490900000000000  0.01745449999999998  0.01309112499999998 -0.00945437500000000 -0.16254546874999990 -0.04581823437499993  0.46654545312499945
-0.01745450000000000 -0.11345474999999995 -0.01309112499999998 -0.00945437500000000 -0.16254546874999990 -0.04581823437499993  0.46654545312499945
 0.01745450000000000 -0.11345474999999995 -0.01309112499999998 -0.00945437500000000 -0.16254546874999990 -0.04581823437499993  0.46654545312499945
-0.06981799999999998  0.11345474999999995 -0.01309112499999998 -0.00945437500000000 -0.16254546874999990 -0.04581823437499993  0.46654545312499945
 0.06981799999999998  0.11345474999999995 -0.01309112499999998 -0.00945437500000000 -0.16254546874999990 -0.04581823437499993  0.46654545312499945
 0.01745450000000002  0.01745450000000001 -0.04363637499999994 -0.03127287499999994 -0.01854543749999996  0.04581823437499993  0.46654545312499945
-0.01745450000000002  0.01745450000000001 -0.04363637499999994 -0.03127287499999994 -0.01854543749999996  0.04581823437499993  0.46654545312499945
-0.01745449999999998 -0.01745450000000001 -0.04363637499999994 -0.03127287499999994 -0.01854543749999996  0.04581823437499993  0.46654545312499945
 0.01745449999999998 -0.01745450000000001 -0.04363637499999994 -0.03127287499999994 -0.01854543749999996  0.04581823437499993  0.46654545312499945
-0.03490900000000000 -0.05236374999999992  0.04363637499999994 -0.03127287499999994 -0.01854543749999996  0.04581823437499993  0.46654545312499945
 0.03490900000000000 -0.05236374999999992  0.04363637499999994 -0.03127287499999994 -0.01854543749999996  0.04581823437499993  0.46654545312499945
-0.03490949999999996  0.05236374999999992  0.04363637499999994 -0.03127287499999994 -0.01854543749999996  0.04581823437499993  0.46654545312499945
 0.03490949999999996  0.05236374999999992  0.04363637499999994 -0.03127287499999994 -0.01854543749999996  0.04581823437499993  0.46654545312499945
-0.00581850000000001  0.02327249999999991  0.01599987499999999  0.03127287499999994 -0.01854543749999996  0.04581823437499993  0.46654545312499945
 0.00581850000000001  0.02327249999999991  0.01599987499999999  0.03127287499999994 -0.01854543749999996  0.04581823437499993  0.46654545312499945
 0.01745449999999998 -0.02327249999999991  0.01599987499999999  0.03127287499999994 -0.01854543749999996  0.04581823437499993  0.46654545312499945
-0.01745449999999998 -0.02327249999999991  0.01599987499999999  0.03127287499999994 -0.01854543749999996  0.04581823437499993  0.46654545312499945
-0.01745449999999998 -0.02618174999999997 -0.01599987499999999  0.03127287499999994 -0.01854543749999996  0.04581823437499993  0.46654545312499945
 0.01745449999999998 -0.02618174999999997 -0.01599987499999999  0.03127287499999994 -0.01854543749999996  0.04581823437499993  0.46654545312499945
 0.03490899999999997  0.02618174999999997 -0.01599987499999999  0.03127287499999994 -0.01854543749999996  0.04581823437499993  0.46654545312499945
-0.03490899999999997  0.02618174999999997 -0.01599987499999999  0.03127287499999994 -0.01854543749999996  0.04581823437499993  0.46654545312499945
-0.03490900000000000  0.05236375000000004  0.01745449999999998  0.00436362500000004  0.01854543749999996  0.04581823437499993  0.46654545312499945
 0.03490900000000000  0.05236375000000004  0.01745449999999998  0.00436362500000004  0.01854543749999996  0.04581823437499993  0.46654545312499945
 0.06981849999999996 -0.05236375000000004  0.01745449999999998  0.00436362500000004  0.01854543749999996  0.04581823437499993  0.46654545312499945
-0.06981849999999996 -0.05236375000000004  0.01745449999999998  0.00436362500000004  0.01854543749999996  0.04581823437499993  0.46654545312499945
-0.00581800000000001 -0.01163625000000001 -0.01745449999999998  0.00436362500000004  0.01854543749999996  0.04581823437499993  0.46654545312499945
 0.00581800000000001 -0.01163625000000001 -0.01745449999999998  0.00436362500000004  0.01854543749999996  0.04581823437499993  0.46654545312499945
 0.01745449999999998  0.01163625000000001 -0.01745449999999998  0.00436362500000004  0.01854543749999996  0.04581823437499993  0.46654545312499945
-0.01745449999999998  0.01163625000000001 -0.01745449999999998  0.00436362500000004  0.01854543749999996  0.04581823437499993  0.46654545312499945
 0.01745449999999998  0.01745449999999998  0.02036349999999998 -0.00436362500000004  0.01854543749999996  0.04581823437499993  0.46654545312499945
-0.01745449999999998  0.01745449999999998  0.02036349999999998 -0.00436362500000004  0.01854543749999996  0.04581823437499993  0.46654545312499945
 0.01745449999999998 -0.01745449999999998  0.02036349999999998 -0.00436362500000004  0.01854543749999996  0.04581823437499993  0.46654545312499945
-0.01745449999999998 -0.01745449999999998  0.02036349999999998 -0.00436362500000004  0.01854543749999996  0.04581823437499993  0.46654545312499945
 0.01745449999999998  0.02327249999999999 -0.02036349999999998 -0.00436362500000004  0.01854543749999996  0.04581823437499993  0.46654545312499945
-0.01745449999999998  0.02327249999999999 -0.02036349999999998 -0.00436362500000004  0.01854543749999996  0.04581823437499993  0.46654545312499945
 0.01745449999999998 -0.02327249999999999 -0.02036349999999998 -0.00436362500000004  0.01854543749999996  0.04581823437499993  0.46654545312499945
-0.01745449999999998 -0.02327249999999999 -0.02036349999999998 -0.00436362500000004  0.01854543749999996  0.04581823437499993  0.46654545312499945
-0.03490900000000000  0.00872725000000002  0.01745462500000005 -0.02109087499999995  0.04109093749999995  0.06036790624999993  0.46363215624999954
 0.03490900000000000  0.00872725000000002  0.01745462500000005 -0.02109087499999995  0.04109093749999995  0.06036790624999993  0.46363215624999954
 0.01745449999999998 -0.00872725000000002  0.01745462500000005 -0.02109087499999995  0.04109093749999995  0.06036790624999993  0.46363215624999954
-0.01745449999999998 -0.00872725000000002  0.01745462500000005 -0.02109087499999995  0.04109093749999995  0.06036790624999993  0.46363215624999954
 0.01745449999999998  0.02618200000000003 -0.01745462500000005 -0.02109087499999995  0.04109093749999995  0.06036790624999993  0.46363215624999954
-0.01745449999999998  0.02618200000000003 -0.01745462500000005 -0.02109087499999995  0.04109093749999995  0.06036790624999993  0.46363215624999954
 0.06981849999999996 -0.02618200000000003 -0.01745462500000005 -0.02109087499999995  0.04109093749999995  0.06036790624999993  0.46363215624999954
-0.06981849999999996 -0.02618200000000003 -0.01745462500000005 -0.02109087499999995  0.04109093749999995  0.06036790624999993  0.46363215624999954
 0.01745500000000002 -0.07854549999999998 -0.05963637499999996  0.02109087499999995  0.04109093749999995  0.06036790624999993  0.46363215624999954
-0.01745500000000002 -0.07854549999999998 -0.05963637499999996  0.02109087499999995  0.04109093749999995  0.06036790624999993  0.46363215624999954
-0.03490900000000000  0.07854549999999998 -0.05963637499999996  0.02109087499999995  0.04109093749999995  0.06036790624999993  0.46363215624999954
 0.03490900000000000  0.07854549999999998 -0.05963637499999996  0.02109087499999995  0.04109093749999995  0.06036790624999993  0.46363215624999954
 0.01745449999999998  0.01163624999999996  0.05963637499999996  0.02109087499999995  0.04109093749999995  0.06036790624999993  0.46363215624999954
-0.01745449999999998  0.01163624999999996  0.05963637499999996  0.02109087499999995  0.04109093749999995  0.06036790624999993  0.46363215624999954
-0.00581799999999997 -0.01163624999999996  0.05963637499999996  0.02109087499999995  0.04109093749999995  0.06036790624999993  0.46363215624999954
 0.00581799999999997 -0.01163624999999996  0.05963637499999996  0.02109087499999995  0.04109093749999995  0.06036790624999993  0.46363215624999954
 0.03490900000000000  0.04945450000000000  0.04654537499999994  0.03781799999999998 -0.04109093749999995  0.06036790624999993  0.46363215624999954
-0.03490900000000000  0.04945450000000000  0.04654537499999994  0.03781799999999998 -0.04109093749999995  0.06036790624999993  0.46363215624999954
-0.00581799999999997 -0.04945450000000000  0.04654537499999994  0.03781799999999998 -0.04109093749999995  0.06036790624999993  0.46363215624999954
 0.00581799999999997 -0.04945450000000000  0.04654537499999994  0.03781799999999998 -0.04109093749999995  0.06036790624999993  0.46363215624999954
 0.03490899999999997  0.01454525000000001 -0.04654537499999994  0.03781799999999998 -0.04109093749999995  0.06036790624999993  0.46363215624999954
-0.03490899999999997  0.01454525000000001 -0.04654537499999994  0.03781799999999998 -0.04109093749999995  0.06036790624999993  0.46363215624999954
-0.01745449999999998 -0.01454525000000001 -0.04654537499999994  0.03781799999999998 -0.04109093749999995  0.06036790624999993  0.46363215624999954
 0.01745449999999998 -0.01454525000000001 -0.04654537499999994  0.03781799999999998 -0.04109093749999995  0.06036790624999993  0.46363215624999954
-0.00581799999999997  0.04072724999999999 -0.01454537500000003 -0.03781799999999998 -0.04109093749999995  0.06036790624999993  0.46363215624999954
 0.00581799999999997  0.04072724999999999 -0.01454537500000003 -0.03781799999999998 -0.04109093749999995  0.06036790624999993  0.46363215624999954
 0.01745449999999998 -0.04072724999999999 -0.01454537500000003 -0.03781799999999998 -0.04109093749999995  0.06036790624999993  0.46363215624999954
-0.01745449999999998 -0.04072724999999999 -0.01454537500000003 -0.03781799999999998 -0.04109093749999995  0.06036790624999993  0.46363215624999954
-0.03490900000000000 -0.01745449999999998  0.01454537500000003 -0.03781799999999998 -0.04109093749999995  0.06036790624999993  0.46363215624999954
 0.03490900000000000 -0.01745449999999998  0.01454537500000003 -0.03781799999999998 -0.04109093749999995  0.06036790624999993  0.46363215624999954
 0.03490900000000000  0.01745449999999998  0.01454537500000003 -0.03781799999999998 -0.04109093749999995  0.06036790624999993  0.46363215624999954
-0.03490900000000000  0.01745449999999998  0.01454537500000003 -0.03781799999999998 -0.04109093749999995  0.06036790624999993  0.46363215624999954
-0.00000000000000000  0.05236349999999997 -0.26181812499999985  0.42983524999999970 -0.14655387499999986 -0.06036790624999993  0.46363215624999954
 0.00000000000000000  0.05236349999999997 -0.26181812499999985  0.42983524999999970 -0.14655387499999986 -0.06036790624999993  0.46363215624999954
 0.03490899999999997 -0.05236349999999997 -0.26181812499999985  0.42983524999999970 -0.14655387499999986 -0.06036790624999993  0.46363215624999954
-0.03490899999999997 -0.05236349999999997 -0.26181812499999985  0.42983524999999970 -0.14655387499999986 -0.06036790624999993  0.46363215624999954
-0.22109099999999995 -0.25018174999999990  0.26181812499999985  0.42983524999999970 -0.14655387499999986 -0.06036790624999993  0.46363215624999954
 0.22109099999999995 -0.25018174999999990  0.26181812499999985  0.42983524999999970 -0.14655387499999986 -0.06036790624999993  0.46363215624999954
-0.03490950000000000  0.25018174999999990  0.26181812499999985  0.42983524999999970 -0.14655387499999986 -0.06036790624999993  0.46363215624999954
 0.03490950000000000  0.25018174999999990  0.26181812499999985  0.42983524999999970 -0.14655387499999986 -0.06036790624999993  0.46363215624999954
 0.40147700000000000  0.26764774999999990 -0.07709087499999998 -0.42983524999999970 -0.14655387499999986 -0.06036790624999993  0.46363215624999954
-0.40147700000000000  0.26764774999999990 -0.07709087499999998 -0.42983524999999970 -0.14655387499999986 -0.06036790624999993  0.46363215624999954
-0.00581850000000001 -0.26764774999999990 -0.07709087499999998 -0.42983524999999970 -0.14655387499999986 -0.06036790624999993  0.46363215624999954
 0.00581850000000001 -0.26764774999999990 -0.07709087499999998 -0.42983524999999970 -0.14655387499999986 -0.06036790624999993  0.46363215624999954
-0.12218199999999996 -0.15419299999999994  0.07709087499999998 -0.42983524999999970 -0.14655387499999986 -0.06036790624999993  0.46363215624999954
 0.12218199999999996 -0.15419299999999994  0.07709087499999998 -0.42983524999999970 -0.14655387499999986 -0.06036790624999993  0.46363215624999954
-0.11638599999999998  0.15419299999999994  0.07709087499999998 -0.42983524999999970 -0.14655387499999986 -0.06036790624999993  0.46363215624999954
 0.11638599999999998  0.15419299999999994  0.07709087499999998 -0.42983524999999970 -0.14655387499999986 -0.06036790624999993  0.46363215624999954
-0.06981799999999999 -0.07854524999999997 -0.04218174999999991 -0.04509112499999999  0.14655387499999986 -0.06036790624999993  0.46363215624999954
 0.06981799999999999 -0.07854524999999997 -0.04218174999999991 -0.04509112499999999  0.14655387499999986 -0.06036790624999993  0.46363215624999954
-0.01745449999999998  0.07854524999999997 -0.04218174999999991 -0.04509112499999999  0.14655387499999986 -0.06036790624999993  0.46363215624999954
 0.01745449999999998  0.07854524999999997 -0.04218174999999991 -0.04509112499999999  0.14655387499999986 -0.06036790624999993  0.46363215624999954
-0.01745449999999998 -0.00581824999999997  0.04218174999999991 -0.04509112499999999  0.14655387499999986 -0.06036790624999993  0.46363215624999954
 0.01745449999999998 -0.00581824999999997  0.04218174999999991 -0.04509112499999999  0.14655387499999986 -0.06036790624999993  0.46363215624999954
-0.00581799999999997  0.00581824999999997  0.04218174999999991 -0.04509112499999999  0.14655387499999986 -0.06036790624999993  0.46363215624999954
 0.00581799999999997  0.00581824999999997  0.04218174999999991 -0.04509112499999999  0.14655387499999986 -0.06036790624999993  0.46363215624999954
-0.01745450000000006  0.01163649999999999  0.00436374999999998  0.04509112499999999  0.14655387499999986 -0.06036790624999993  0.46363215624999954
 0.01745450000000006  0.01163649999999999  0.00436374999999998  0.04509112499999999  0.14655387499999986 -0.06036790624999993  0.46363215624999954
 0.00581849999999997 -0.01163649999999999  0.00436374999999998  0.04509112499999999  0.14655387499999986 -0.06036790624999993  0.46363215624999954
-0.00581849999999997 -0.01163649999999999  0.00436374999999998  0.04509112499999999  0.14655387499999986 -0.06036790624999993  0.46363215624999954
 0.00581800000000001 -0.01454550000000004 -0.00436374999999998  0.04509112499999999  0.14655387499999986 -0.06036790624999993  0.46363215624999954
-0.00581800000000001 -0.01454550000000004 -0.00436374999999998  0.04509112499999999  0.14655387499999986 -0.06036790624999993  0.46363215624999954
-0.00000000000000000  0.01454550000000004 -0.00436374999999998  0.04509112499999999  0.14655387499999986 -0.06036790624999993  0.46363215624999954
 0.00000000000000000  0.01454550000000004 -0.00436374999999998  0.04509112499999999  0.14655387499999986 -0.06036790624999993  0.46363215624999954
 0.00581800000000001  0.00872700000000004 -0.00581812500000007 -0.00872712500000000  0.12981815624999993  0.06581815624999991  0.42109093749999954
-0.00581800000000001  0.00872700000000004 -0.00581812500000007 -0.00872712500000000  0.12981815624999993  0.06581815624999991  0.42109093749999954
-0.00000000000000000 -0.00872700000000004 -0.00581812500000007 -0.00872712500000000  0.12981815624999993  0.06581815624999991  0.42109093749999954
 0.00000000000000000 -0.00872700000000004 -0.00581812500000007 -0.00872712500000000  0.12981815624999993  0.06581815624999991  0.42109093749999954
-0.00000000000000000  0.01454574999999997  0.00581812500000007 -0.00872712500000000  0.12981815624999993  0.06581815624999991  0.42109093749999954
 0.00000000000000000  0.01454574999999997  0.00581812500000007 -0.00872712500000000  0.12981815624999993  0.06581815624999991  0.42109093749999954
 0.01745450000000002 -0.01454574999999997  0.00581812500000007 -0.00872712500000000  0.12981815624999993  0.06581815624999991  0.42109093749999954
-0.01745450000000002 -0.01454574999999997  0.00581812500000007 -0.00872712500000000  0.12981815624999993  0.06581815624999991  0.42109093749999954
-0.01745449999999998  0.01745449999999998 -0.00872737499999990  0.00872712500000000  0.12981815624999993  0.06581815624999991  0.42109093749999954
 0.01745449999999998  0.01745449999999998 -0.00872737499999990  0.00872712500000000  0.12981815624999993  0.06581815624999991  0.42109093749999954
 0.01745450000000002 -0.01745449999999998 -0.00872737499999990  0.00872712500000000  0.12981815624999993  0.06581815624999991  0.42109093749999954
-0.01745450000000002 -0.01745449999999998 -0.00872737499999990  0.00872712500000000  0.12981815624999993  0.06581815624999991  0.42109093749999954
 0.00581800000000001  0.01163625000000001  0.00872737499999990  0.00872712500000000  0.12981815624999993  0.06581815624999991  0.42109093749999954
-0.00581800000000001  0.01163625000000001  0.00872737499999990  0.00872712500000000  0.12981815624999993  0.06581815624999991  0.42109093749999954
 0.01745449999999998 -0.01163625000000001  0.00872737499999990  0.00872712500000000  0.12981815624999993  0.06581815624999991  0.42109093749999954
-0.01745449999999998 -0.01163625000000001  0.00872737499999990  0.00872712500000000  0.12981815624999993  0.06581815624999991  0.42109093749999954
-0.00000000000000000  0.01454574999999997  0.05963637499999996  0.13890893749999986 -0.12981815624999993  0.06581815624999991  0.42109093749999954
 0.00000000000000000  0.01454574999999997  0.05963637499999996  0.13890893749999986 -0.12981815624999993  0.06581815624999991  0.42109093749999954
 0.01745449999999998 -0.01454574999999997  0.05963637499999996  0.13890893749999986 -0.12981815624999993  0.06581815624999991  0.42109093749999954
-0.01745449999999998 -0.01454574999999997  0.05963637499999996  0.13890893749999986 -0.12981815624999993  0.06581815624999991  0.42109093749999954
 0.01745449999999998  0.03490899999999999 -0.05963637499999996  0.13890893749999986 -0.12981815624999993  0.06581815624999991  0.42109093749999954
-0.01745449999999998  0.03490899999999999 -0.05963637499999996  0.13890893749999986 -0.12981815624999993  0.06581815624999991  0.42109093749999954
 0.01745449999999998 -0.03490899999999999 -0.05963637499999996  0.13890893749999986 -0.12981815624999993  0.06581815624999991  0.42109093749999954
-0.01745449999999998 -0.03490899999999999 -0.05963637499999996  0.13890893749999986 -0.12981815624999993  0.06581815624999991  0.42109093749999954
 0.01745450000000000  0.03490899999999999  0.04363649999999998 -0.13890893749999986 -0.12981815624999993  0.06581815624999991  0.42109093749999954
-0.01745450000000000  0.03490899999999999  0.04363649999999998 -0.13890893749999986 -0.12981815624999993  0.06581815624999991  0.42109093749999954
 0.01745450000000000 -0.03490899999999999  0.04363649999999998 -0.13890893749999986 -0.12981815624999993  0.06581815624999991  0.42109093749999954
-0.01745450000000000 -0.03490899999999999  0.04363649999999998 -0.13890893749999986 -0.12981815624999993  0.06581815624999991  0.42109093749999954
 0.01745499999999999  0.01745450000000001 -0.04363649999999998 -0.13890893749999986 -0.12981815624999993  0.06581815624999991  0.42109093749999954
-0.01745499999999999  0.01745450000000001 -0.04363649999999998 -0.13890893749999986 -0.12981815624999993  0.06581815624999991  0.42109093749999954
 0.00581800000000001 -0.01745450000000001 -0.04363649999999998 -0.13890893749999986 -0.12981815624999993  0.06581815624999991  0.42109093749999954
-0.00581800000000001 -0.01745450000000001 -0.04363649999999998 -0.13890893749999986 -0.12981815624999993  0.06581815624999991  0.42109093749999954
-0.00581800000000001  0.00581825000000001 -0.02909112499999998 -0.06981818749999996 -0.07018171874999991 -0.06581815624999991  0.42109093749999954
 0.00581800000000001  0.00581825000000001 -0.02909112499999998 -0.06981818749999996 -0.07018171874999991 -0.06581815624999991  0.42109093749999954
 0.00581850000000000 -0.00581825000000001 -0.02909112499999998 -0.06981818749999996 -0.07018171874999991 -0.06581815624999991  0.42109093749999954
-0.00581850000000000 -0.00581825000000001 -0.02909112499999998 -0.06981818749999996 -0.07018171874999991 -0.06581815624999991  0.42109093749999954
-0.01745450000000000 -0.01745450000000001  0.02909112499999998 -0.06981818749999996 -0.07018171874999991 -0.06581815624999991  0.42109093749999954
 0.01745450000000000 -0.01745450000000001  0.02909112499999998 -0.06981818749999996 -0.07018171874999991 -0.06581815624999991  0.42109093749999954
-0.01745450000000000  0.01745450000000001  0.02909112499999998 -0.06981818749999996 -0.07018171874999991 -0.06581815624999991  0.42109093749999954
 0.01745450000000000  0.01745450000000001  0.02909112499999998 -0.06981818749999996 -0.07018171874999991 -0.06581815624999991  0.42109093749999954
-0.00000000000000000 -0.01454549999999999 -0.02618174999999997  0.06981818749999996 -0.07018171874999991 -0.06581815624999991  0.42109093749999954
 0.00000000000000000 -0.01454549999999999 -0.02618174999999997  0.06981818749999996 -0.07018171874999991 -0.06581815624999991  0.42109093749999954
 0.00581799999999999  0.01454549999999999 -0.02618174999999997  0.06981818749999996 -0.07018171874999991 -0.06581815624999991  0.42109093749999954
-0.00581799999999999  0.01454549999999999 -0.02618174999999997  0.06981818749999996 -0.07018171874999991 -0.06581815624999991  0.42109093749999954
-0.00581800000000001 -0.00290900000000002  0.02618174999999997  0.06981818749999996 -0.07018171874999991 -0.06581815624999991  0.42109093749999954
 0.00581800000000001 -0.00290900000000002  0.02618174999999997  0.06981818749999996 -0.07018171874999991 -0.06581815624999991  0.42109093749999954
-0.00000000000000000  0.00290900000000002  0.02618174999999997  0.06981818749999996 -0.07018171874999991 -0.06581815624999991  0.42109093749999954
 0.00000000000000000  0.00290900000000002  0.02618174999999997  0.06981818749999996 -0.07018171874999991 -0.06581815624999991  0.42109093749999954
-0.03490900000000000 -0.02618174999999997  0.00436362500000003  0.01527262500000001  0.07018171874999991 -0.06581815624999991  0.42109093749999954
 0.03490900000000000 -0.02618174999999997  0.00436362500000003  0.01527262500000001  0.07018171874999991 -0.06581815624999991  0.42109093749999954
 0.01745449999999998  0.02618174999999997  0.00436362500000003  0.01527262500000001  0.07018171874999991 -0.06581815624999991  0.42109093749999954
-0.01745449999999998  0.02618174999999997  0.00436362500000003  0.01527262500000001  0.07018171874999991 -0.06581815624999991  0.42109093749999954
-0.00581800000000001 -0.01163650000000002 -0.00436362500000003  0.01527262500000001  0.07018171874999991 -0.06581815624999991  0.42109093749999954
 0.00581800000000001 -0.01163650000000002 -0.00436362500000003  0.01527262500000001  0.07018171874999991 -0.06581815624999991  0.42109093749999954
-0.01745500000000002  0.01163650000000002 -0.00436362500000003  0.01527262500000001  0.07018171874999991 -0.06581815624999991  0.42109093749999954
 0.01745500000000002  0.01163650000000002 -0.00436362500000003  0.01527262500000001  0.07018171874999991 -0.06581815624999991  0.42109093749999954
-0.00000000000000000  0.00872700000000001  0.01163612500000000 -0.01527262500000001  0.07018171874999991 -0.06581815624999991  0.42109093749999954
 0.00000000000000000  0.00872700000000001  0.01163612500000000 -0.01527262500000001  0.07018171874999991 -0.06581815624999991  0.42109093749999954
 0.00581800000000001 -0.00872700000000001  0.01163612500000000 -0.01527262500000001  0.07018171874999991 -0.06581815624999991  0.42109093749999954
-0.00581800000000001 -0.00872700000000001  0.01163612500000000 -0.01527262500000001  0.07018171874999991 -0.06581815624999991  0.42109093749999954
-0.00000000000000000  0.00872724999999999 -0.01163612500000000 -0.01527262500000001  0.07018171874999991 -0.06581815624999991  0.42109093749999954
 0.00000000000000000  0.00872724999999999 -0.01163612500000000 -0.01527262500000001  0.07018171874999991 -0.06581815624999991  0.42109093749999954
 0.01745449999999998 -0.00872724999999999 -0.01163612500000000 -0.01527262500000001  0.07018171874999991 -0.06581815624999991  0.42109093749999954
-0.01745449999999998 -0.00872724999999999 -0.01163612500000000 -0.01527262500000001  0.07018171874999991 -0.06581815624999991  0.42109093749999954
-0.00581800000000001  0.00290899999999999  0.01018187499999998  0.01090918749999997  0.01199996874999999  0.11091417187499986  0.23126779687499976
 0.00581800000000001  0.00290899999999999  0.01018187499999998  0.01090918749999997  0.01199996874999999  0.11091417187499986  0.23126779687499976
-0.00000000000000000 -0.00290899999999999  0.01018187499999998  0.01090918749999997  0.01199996874999999  0.11091417187499986  0.23126779687499976
 0.00000000000000000 -0.00290899999999999  0.01018187499999998  0.01090918749999997  0.01199996874999999  0.11091417187499986  0.23126779687499976
-0.00581849999999997  0.01163625000000001 -0.01018187499999998  0.01090918749999997  0.01199996874999999  0.11091417187499986  0.23126779687499976
 0.00581849999999997  0.01163625000000001 -0.01018187499999998  0.01090918749999997  0.01199996874999999  0.11091417187499986  0.23126779687499976
-0.00581799999999999 -0.01163625000000001 -0.01018187499999998  0.01090918749999997  0.01199996874999999  0.11091417187499986  0.23126779687499976
 0.00581799999999999 -0.01163625000000001 -0.01018187499999998  0.01090918749999997  0.01199996874999999  0.11091417187499986  0.23126779687499976
-0.00000000000000000  0.00581799999999999  0.00000024999999998 -0.01090918749999997  0.01199996874999999  0.11091417187499986  0.23126779687499976
 0.00000000000000000  0.00581799999999999  0.00000024999999998 -0.01090918749999997  0.01199996874999999  0.11091417187499986  0.23126779687499976
-0.00000000000000000 -0.00581799999999999  0.00000024999999998 -0.01090918749999997  0.01199996874999999  0.11091417187499986  0.23126779687499976
 0.00000000000000000 -0.00581799999999999  0.00000024999999998 -0.01090918749999997  0.01199996874999999  0.11091417187499986  0.23126779687499976
-0.01745450000000002 -0.00000000000000000 -0.00000024999999998 -0.01090918749999997  0.01199996874999999  0.11091417187499986  0.23126779687499976
 0.01745450000000002 -0.00000000000000000 -0.00000024999999998 -0.01090918749999997  0.01199996874999999  0.11091417187499986  0.23126779687499976
-0.01745450000000002  0.00000000000000000 -0.00000024999999998 -0.01090918749999997  0.01199996874999999  0.11091417187499986  0.23126779687499976
 0.01745450000000002  0.00000000000000000 -0.00000024999999998 -0.01090918749999997  0.01199996874999999  0.11091417187499986  0.23126779687499976
-0.01745500000000002 -0.02618199999999998  0.05236375000000000  0.09163624999999990 -0.01199996874999999  0.11091417187499986  0.23126779687499976
 0.01745500000000002 -0.02618199999999998  0.05236375000000000  0.09163624999999990 -0.01199996874999999  0.11091417187499986  0.23126779687499976
-0.00000000000000000  0.02618199999999998  0.05236375000000000  0.09163624999999990 -0.01199996874999999  0.11091417187499986  0.23126779687499976
 0.00000000000000000  0.02618199999999998  0.05236375000000000  0.09163624999999990 -0.01199996874999999  0.11091417187499986  0.23126779687499976
 0.06981799999999999  0.04945449999999998 -0.05236375000000000  0.09163624999999990 -0.01199996874999999  0.11091417187499986  0.23126779687499976
-0.06981799999999999  0.04945449999999998 -0.05236375000000000  0.09163624999999990 -0.01199996874999999  0.11091417187499986  0.23126779687499976
 0.01745500000000000 -0.04945449999999998 -0.05236375000000000  0.09163624999999990 -0.01199996874999999  0.11091417187499986  0.23126779687499976
-0.01745500000000000 -0.04945449999999998 -0.05236375000000000  0.09163624999999990 -0.01199996874999999  0.11091417187499986  0.23126779687499976
 0.01745450000000000  0.02618174999999997  0.03199999999999995 -0.09163624999999990 -0.01199996874999999  0.11091417187499986  0.23126779687499976
-0.01745450000000000  0.02618174999999997  0.03199999999999995 -0.09163624999999990 -0.01199996874999999  0.11091417187499986  0.23126779687499976
-0.00000000000000000 -0.02618174999999997  0.03199999999999995 -0.09163624999999990 -0.01199996874999999  0.11091417187499986  0.23126779687499976
 0.00000000000000000 -0.02618174999999997  0.03199999999999995 -0.09163624999999990 -0.01199996874999999  0.11091417187499986  0.23126779687499976
-0.00000000000000000  0.00290924999999997 -0.03199999999999995 -0.09163624999999990 -0.01199996874999999  0.11091417187499986  0.23126779687499976
 0.00000000000000000  0.00290924999999997 -0.03199999999999995 -0.09163624999999990 -0.01199996874999999  0.11091417187499986  0.23126779687499976
 0.01745450000000000 -0.00290924999999997 -0.03199999999999995 -0.09163624999999990 -0.01199996874999999  0.11091417187499986  0.23126779687499976
-0.01745450000000000 -0.00290924999999997 -0.03199999999999995 -0.09163624999999990 -0.01199996874999999  0.11091417187499986  0.23126779687499976
 0.00581850000000000 -0.00581825000000001  0.00872737500000001 -0.00435525000000004  0.06145599999999998 -0.11091417187499986  0.23126779687499976
-0.00581850000000000 -0.00581825000000001  0.00872737500000001 -0.00435525000000004  0.06145599999999998 -0.11091417187499986  0.23126779687499976
-0.00581800000000001  0.00581825000000001  0.00872737500000001 -0.00435525000000004  0.06145599999999998 -0.11091417187499986  0.23126779687499976
 0.00581800000000001  0.00581825000000001  0.00872737500000001 -0.00435525000000004  0.06145599999999998 -0.11091417187499986  0.23126779687499976
 0.01745450000000000  0.01163649999999999 -0.00872737500000001 -0.00435525000000004  0.06145599999999998 -0.11091417187499986  0.23126779687499976
-0.01745450000000000  0.01163649999999999 -0.00872737500000001 -0.00435525000000004  0.06145599999999998 -0.11091417187499986  0.23126779687499976
 0.01745449999999999 -0.01163649999999999 -0.00872737500000001 -0.00435525000000004  0.06145599999999998 -0.11091417187499986  0.23126779687499976
-0.01745449999999999 -0.01163649999999999 -0.00872737500000001 -0.00435525000000004  0.06145599999999998 -0.11091417187499986  0.23126779687499976
-0.12218150000000000 -0.34327274999999996  0.48874437499999973  0.00435525000000004  0.06145599999999998 -0.11091417187499986  0.23126779687499976
 0.12218150000000000 -0.34327274999999996  0.48874437499999973  0.00435525000000004  0.06145599999999998 -0.11091417187499986  0.23126779687499976
-0.12218199999999992  0.34327274999999996  0.48874437499999973  0.00435525000000004  0.06145599999999998 -0.11091417187499986  0.23126779687499976
 0.12218199999999992  0.34327274999999996  0.48874437499999973  0.00435525000000004  0.06145599999999998 -0.11091417187499986  0.23126779687499976
 0.40147749999999993  0.59928399999999970 -0.48874437499999973  0.00435525000000004  0.06145599999999998 -0.11091417187499986  0.23126779687499976
-0.40147749999999993  0.59928399999999970 -0.48874437499999973  0.00435525000000004  0.06145599999999998 -0.11091417187499986  0.23126779687499976
-0.01745449999999998 -0.59928399999999970 -0.48874437499999973  0.00435525000000004  0.06145599999999998 -0.11091417187499986  0.23126779687499976
