-0.1562889361932155
0.02415712756542876
-0.026741452639248216
-0.01851320457997473
0.006353548529462732
-1.8218570831230667E-4
1.0191500421363742E-17
-0.011795669498734233
-0.009503131841156552
0.0010934208360800961
-0.003814083573151426
0.01022030331862762
3.647820469066165E-4
9.639376552374986E-4
0.0168737155278804
-0.026976429263377885
1.8211297569283892E-4
0.008592676552789585
-0.011731707747713597
-0.003931704467737636
-0.014516935298510942
-0.0071993193042998345
-0.015063404035100234
0.01010312436577961
0.020323458995863526
-0.030726447041432948
0.011666966157292359
-0.030791791694559627
-0.0066531626999378965
0.006588421109516646
-0.003203169722640017
0.02722341363900293
0.02722341363900293
-0.011795669498734207
-0.026623509502727592
0.02063468594328009
0.0035674214394607927
-0.006288557429726612
0.008345603788816873
-0.019542029290872502
-0.007864261507495652
-0.009921307866585887
0.008227894505882922
0.020206248731559105
0.010520551863264522
-0.034111786816657136
-0.008163594857199809
0.011602063445903922
0.018160373207672074
-0.08814120225290613
0.03107970469974576
0.01614456206434913
-0.06550234925470085
0.03737950569729512
-0.0027857578808831926
-0.0018099008624980466
-0.013970409485030245
0.01033843888757174
-0.008463562581065552
-0.003461324933468195
-0.10760706960883938
-0.08042111626623359
0.28748917646092575
-0.043233692533131994
-0.03517328936936883
-0.001604915886312789
-0.0032788013274933636
0.08426281903107177
0.031432094130310215
-0.002227796067156383
0.01317725284931525
-0.07373052458135483
0.015169750050407611
0.04313352940930821
-0.005495410903718507
0.03376994950286246
0.025196239228053308
-0.11741015351813361
0.07710476625399537
-0.021917084347169203
-0.003494958758409575
0.03878141836783521
0.02624344085657907
0.004487201865428388
0.03140201409401801
-0.003878736775225062
0.011377919759315005
-0.02087013027458305
0.0482757296218984
-0.028069480890339227
-0.00574224981410436
-1.0659552462209156E-4
0.010273504864727006
0.009203767179996186
0.04870501940563962
-0.04175172786086866
0.015234138087438339
-0.02175815550419606
0.025037310385080204
-0.006364703708937793
0.0397592150040482
0.009803172297641896
0.02219833530236949
-0.0402297556592848
-0.039812271084908486
0.05020339684422175
0.02052866216990714
-0.048082534199349894
0.07710455816584381
-0.10053696832033912
0.04095915863213089
0.017720708083856458
-0.028305512628619554
0.027383195053996248
-0.12502729529447232
0.010402416294320472
-0.005207206968054364
-0.012771100231109283
0.004661076129127536
0.002915183984834464
-0.03898460946364127
0.03786738085765936
-0.011398249079274078
-0.020440432459575004
-0.008709855505637555
0.012641986259385436
0.02692362269183242
0.009920528027185271
-0.0449434459275344
0.007070543230238483
0.018319759648111562
-0.12295159086313562
0.03555916266741089
0.2994641370465044
-0.392729265657489
-0.07650113317190321
0.010349344557732083
0.00941560663859063
0.028760333214687902
-0.01964240704112424
-0.0151777363060804
0.045243309607324436
-0.022980763044619563
-0.05826186746725323
0.03036241352247078
-0.03460524089354943
0.01567440627395932
0.011913877800297826
-0.07361290368676854
0.032107853615318635
0.042051503152311036
-9.10865918649067E-4
-0.016209262233607177
0.028498328732342253
0.012813203674624914
0.015131169084084843
-0.010851723265793398
-0.01874772620565314
0.016991336422466672
-0.004531520215665401
0.013735110618966293
-0.020623748961663482
-0.017302443670079395
-0.0172380712887768
0.030308889734437156
0.027823848105364125
-0.02860462778046515
0.013606069379861956
-0.003752599294880073
0.042245574327443296
-0.021088378428735937
-0.019030684638770983
0.005992538469063815
0.018448624110520603
0.003814083573151431
-0.019659296632068286
0.013970336752410793
0.033110014131098105
0.008374623872214852
0.010273169566079583
-0.018684042676388537
0.032601323347939
0.0066527934908191914
-0.0026567009860507494
0.015564342416173264
-0.01707744707762293
-0.005139688829369528
-0.016156455662061656
0.01373519900731394
-0.03218383877356269
0.0010930516269613488
0.019412738542453387
-0.025230916437910537
-0.00890372672351088
-0.057885295866709874
-0.007810675096549508
-0.02498090860372228
-0.0445646649917301
-0.010327874047936296
-0.004860947304014773
-0.045818678727507826
0.0021982437619350007
-0.038791060487702304
-0.1024163074258378
0.45680569917517144
-0.042387448505100324
-0.17074383175090285
3.466155412922174E-5
0.022532792356059345
0.03982603776518658
-0.07702590607487243
0.1082100542805694
-0.12776071985700455
-0.029215838107475762
-0.017260927633541114
-0.02269198181168518
-0.01650964058775495
0.017955346810323635
-0.03827895127142614
0.029215910840095255
-0.06812872069514465
0.004790133023959991
-0.03236630530264609
0.027758519107965517
0.04120518639165985
0.011249143685253543
0.017420241341361005
0.024809287735045336
-0.08033773323878143
0.0513091939336383
-0.023674108504517375
-0.0401011093947343
0.0319143773719992
-0.05444726921974401
-0.06961257866516354
0.03379174940599773
-0.03981225542918036
-0.01964759546677919
-0.013822401967945635
-0.03840457666935665
-0.05324932650492341
0.00894477210586983
0.007734424773262514
0.07645179038113158
-0.11651123827408853
0.0946468407986609
0.03197861994379086
-0.06235266189893125
0.12361183022916292
-0.15095268798605685
0.11397214252689594
-0.006204995026564042
-0.06312312331084931
0.01722669236542201
-0.03355382500293033
0.07147985651370606
0.02648335450531135
-0.0475894180201202
-0.006212790469341154
0.046090141042333346
-0.09873843072546784
0.05698599575781778
-0.05139601273670077
0.007104851230976901
-0.06564300327074671
0.010972209082847233
0.03734521335228469
-0.03380031035992576
-0.013841014692535382
0.003996414746702786
0.01638031852787949
-0.210584437638602
0.337057719976414
-0.040079198909247084
-0.09768157941751336
-0.03917839684555706
0.0015151222715648338
0.10565918723448328
-0.045084011555232666
-0.014099289603167564
-0.05776751385115642
-0.011454185738330158
-0.04737628404776739
-0.04087110309947904
0.007359147686477602
-0.06442160185573413
0.0881946689640484
0.021493291276197646
0.039254309271181606
-0.023238419236818242
0.07269421101388598
0.04412735466841447
-0.04736536272187901
0.021087065925372125
0.1740092023353337
-0.07366601684452029
0.05772598215888986
0.03843867560952806
-0.009522363284179896
0.001275221679545495
-0.003996414746702773
0.021116865140893254
0.024844114962531756
-0.05894452285583421
0.05733882713012054
-0.00382568069436481
0.008903726723510802
0.01089615119198372
0.04524408944672509
0.0189309699751221
-0.005806757550939122
-0.00960956624481155
-0.06116445074759395
0.07475908412720979
-0.0963055769495068
-4.820650438305419E-4
-0.039747779003802025
-0.00835720091003026
-0.02667688782552227
-0.005571604150114156
-0.049292796090615744
0.05226072402408308
-0.030308962467056656
-0.01706724884809121
-0.07096840288463656
-0.07366673960702962
0.027576406132272795
-0.010596521365780385
0.005324765239728116
-0.0025504433590912336
0.007328537320099464
-0.028798587386686142
0.019788426259520216
0.03514016958581669
-0.03900764713749106
0.024137864810949115
-0.04429073521971363
0.03683297988381438
-0.12434030789736926
0.09906075577546816
0.43075893087774875
-0.3459509161441912
-0.06536834423192779
0.0701829516838232
0.03553568760421315
0.03482839925160116
0.029022304787264863
0.016820498326052813
-0.012942364613533236
0.032419210372246265
-0.006835582261836996
-0.019294940871171888
-0.0017571099466808203
2.998066028985641E-4
-0.014816669168790183
0.009310024806955801
-0.03296566345310754
0.03484048268272192
-0.04578983542080522
0.0019281091640616418
-9.108815743772633E-4
0.0058715562182516945
7.817676026532685E-4
-2.6020852139652106E-17
0.01433469251330726
-0.0019924972010924268
-0.014334619780687802
-0.009257249546866627
-0.020441048578993492
0.012941584774132457
-0.022863318926728545
0.01506346111199164
5.465258134806409E-4
-0.012042404365044423
-0.018330946139042906
0.007317101319853343
-0.005260216081730311
0.01905981878180302
-0.001039922813481555
0.0011573669313724652
0.029581119173011917
0.0030853149744670023
-0.005806580774243838
0.002721193067157169
-0.016274060900919894
0.010467053840665949
0.0030857983373684854
0.017967047975612747
0.0029677511567721008
0.004595923908424244
0.0015753348686503316
0.026559209854044474
-0.01831975964811163
0.004531962157403601
0.01638055238146609
-0.05505799063783205
-0.016145711112868603
1.176936272057616E-4
0.012888721125695567
-0.004231568147527795
-0.013917207938930998
-0.01022117154637597
0.008527846574020505
-0.017848985139288256
-0.06066002837762891
-0.08682076690246189
0.36938168405546434
-0.05198557874966571
-0.09360511104955942
0.04030611002664769
0.04940362413207436
0.03567843092186867
0.006941309558710686
-0.004960674643874612
-0.0049602069367012756
-0.005989088724490466
-0.01754953208978021
-0.004778535902746703
5.469677552188933E-4
-0.0017571099466807344
-0.03163738569270155
0.0323023122401692
0.0030853149744670483
-0.019294883794280467
-0.002968208754238538
0.0010285024689634494
0.009192258447130418
0.011678048604147902
0.02002365239296475
-7.286958660648948E-4
-2.862293735361732E-17
0.009575487545269481
-0.023829512909850668
0.02153417293857434
-0.0033849862218336274
-0.002656274700040635
0.008592515431822337
0.012988305599331496
0.00925928767689269
-3.639865517777751E-4
-0.009556172266288751
0.004413722544383801
0.014399257327033257
0.004595908252696106
-1.8217005258419627E-4
-1.5178830414797062E-17
-8.463894932707063E-4
0.002903805061479621
-0.02674145263924825
-0.024684390624429883
-0.017666815086704077
-0.0013284232256449017
0.029763289225596137
-0.016874198890781844
-0.014881161249896623
0.014881218326787949
-0.0019924972010923517
0.050621146583641044
-0.018513220235702926
-0.013788608641564885
-0.01403488591040867
0.009738784260611161
0.0029677668125002387
1.8224278520369394E-4
-0.010767697359856637
0.00852784657402054
-0.02123439764713198
-0.0035025914606918217
-0.10116686410455905
0.14009137512489742
0.20056740925321004
-0.4377151998933859
-0.03205101151175015
0.005977475947549039
-0.028934317434842313
0.028038328756690004
-0.0036206542970163955
0.016027398767229167
0.016391577751430356
0.007628255534650512
4.820180766460557E-4
-0.0020570463590902587
0.01542774414026863
-0.005325030404771136
-1.8211297569283632E-4
0.0051424340661767156
-0.007499697658447701
0.018630970939800037
-0.03030896246705662
0.016873715527880292
-0.004231568147527782
-0.02655926693093588
0.0065240174167578
-0.017966356524559773
0.018513235891430994
-0.01766697620767122
-0.010819973601316266
0.01264198625938542
0.025230916437910526
0.0072642376714164725
-0.0020566200730801364
0.02068779910103178
-0.018084388049428038
0.0022391593347830053
-7.282695800547748E-4
0.027705374638757566
0.026377096878351703
-0.01088496470105239
-0.0024857901570174493
-0.0167559335123269
-0.015792099901165185
0.02776993945248355
0.027223413639002863
-0.0033853397752242518
-0.002174682909404696
-0.010221051846572052
-0.040658603501287825
0.023944331490738283
-0.015974711895487596
-0.02025928915669127
-0.004778535902746705
0.034841174133775084
-0.02110534075229953
-0.01718485408694939
-0.017420137297285282
-0.0029677668125002612
0.011977839551318398
0.02523091643791051
-0.11961518162887347
0.11355442409893296
0.36904756945182704
-0.3024533532159209
-0.09644831409671654
-0.035387362049593245
0.010736753648206318
0.05249864842715047
-0.004971700013838828
-0.012824566942251625
-0.01748501424323868
0.002174682909404632
0.002239070946435354
0.01476359743220165
-0.014881218326787972
0.01378816669982658
0.0016395774404419985
-0.02831646526596433
0.006470800214930262
0.0036318978648390617
0.002421682940757751
0.027041227930690546
0.04240483354324328
0.0021216581400005877
0.030491132519640744
-0.0027856851482637793
0.010284868132353579
0.016509375422711938
-0.051167672397121756
0.021052315982895402
-0.021598753408028484
-0.007981143983844582
0.006588816084070439
-0.015845623689198823
-1.8212863142094823E-4
0.013670239219034102
-0.02262718314437249
0.02057019386217355
-0.009556614208027038
0.010156268834987502
0.002485790157017411
0.004113874520321897
-0.00429594052883033
-0.029045176787757285
2.4673486631014534E-4
0.005988750826827937
-0.005324604118761015
0.005806991404525725
-0.02014133036444248
0.019048382781556853
-0.032601250615319516
0.0054419755040324745
-0.02843401342793109
-0.007382357584632425
-0.016027326034609688
0.010103124365779492
0.013305883458137532
0.015898752502678568
-0.00453157729255683
-0.001445971387611703
0.016873715527880327
-0.019659312287796445
-0.013370754858069808
-0.003749591492044967
-0.007499287028165691
0.02038841878414323
0.0027210476019181914
-0.12802602602674124
0.10630210579066406
0.41533118673748015
-0.22032386217868258
-0.130783625881529
0.011442781049540315
0.014175544478844726
0.020797228250808826
4.1738053030052405E-4
0.009556967761417554
-0.0013279969396348137
0.0033857660612343203
-0.01748480615508706
0.015127953193098152
0.0045959082526961115
-0.004960674643874612
-0.012824099235078249
-0.0031503788068226956
0.013670488728348886
-7.813983935346181E-4
-0.00466047306642217
-0.0023568529619888935
0.03230145966814898
-0.013188262563551314
0.01675603755640261
-5.465258134806908E-4
-8.430437927731162E-4
0.0051229573182379065
-0.0027205456362825063
0.012042331632424911
-0.004166738168758801
0.03950104413749184
0.01900685108929042
0.014998839221374304
0.001692545132954718
0.006884499739014086
-0.019942270720914257
-0.006649447790321609
-0.0033325645151349947
-0.0045963188829781
6.642037849583703E-4
0.002539023014573044
-0.029762436653575957
0.01687371552788034
0.002786007390198039
-0.005442708376248789
6.642037849583747E-4
-8.463167606511798E-4
0.019480399547362182
-0.0021945546318974164
0.004779209099056507
1.821129756928044E-4
-0.00429604457290611
-0.016756713351727567
-0.0318235514756731
0.025733014325200882
1.814655448180712E-4
0.005377748587968946
0.014334500080883857
-0.015671575247819498
-0.008665604356142543
-0.009438200417326929
0.006535172596232892
0.027105735667525218
-0.009191816505392239
-0.013617432647488593
0.004478640911500413
-0.014091022526723614
-0.10496098756687008
0.14027198809769537
0.20056748198582958
-0.3803760192098748
-0.04002105739301115
-0.044644081266373925
0.06326363186165614
-9.981416119001973E-4
-0.014998839221374287
0.0032028161692494598
-0.0015787275363323583
0.017702334145745607
0.0029847347762336322
0.0054419624473194496
0.0045963188829780946
-0.012459873283692623
-0.027769939452483586
-0.009256984381823654
-0.020753159409886614
0.03097318190774313
-0.0016926335213023648
4.8153471374457087E-4
0.004797071342326727
-6.671414541890855E-4
0.02558357103351792
-0.0023568373062607304
1.235990476633475E-17
-6.938893903907228E-18
-0.012095210936589908
-1.1767797147761976E-4
-8.463894932706261E-4
-4.8153471374451796E-4
-0.011249393194568295
0.016392196469863937
0.00205686958239497
0.012706551073111434
0.014881218326787977
-0.005324619774489107
0.004595923908424277
-0.009010426292208723
-0.0033324917825154655
0.0010285024689635157
-0.0026034110516037377
-0.016091890848335632
0.00653527664030867
0.0064710653799732835
0.02710579274441661
-0.0030210724026753562
0.011249674015339488
-0.005142506798796292
-0.004960264013592601
-0.0037496071477730554
-0.01965929663206826
-0.009556614208026986
0.012459566697486452
0.007435205577341174
0.03870779911342912
0.00885059791003105
0.00864614326393179
7.286387891735284E-4
-0.01149596693991131
0.005871129932241715
2.9987933551818384E-4
-0.02080593466997584
-0.004478110581414466
-0.07360482904274804
0.014100725377765784
0.40231557406454566
-0.22913460706777475
-0.056742136918785345
0.03975956855743899
0.04464408126637415
0.050674187008773325
-0.002367847020496785
0.019841482340380606
-8.467430466612648E-4
-0.00344974346798304
-0.010102698079769415
3.639294748863974E-4
0.005624467798551007
-0.013670545805240287
0.004167590740779043
-0.031090859879220833
0.002903805061479673
-3.644284935159967E-4
0.0051428760079150595
6.642037849583877E-4
0.010038133266043435
0.008228336447621153
3.6391381915827116E-4
9.640103878570064E-4
7.273261951349849E-8
0.012641544317647229
0.005753805514154648
0.0038144942034334913
-0.0201413303644424
-0.005142860352186874
0.02958032367788317
-0.01427030447627653
0.002903378775469617
-0.012888721125695501
-0.0036323241508491397
-0.005989031647599068
-0.014463733752411612
0.004842570386386843
0.007499728969903958
-0.029098232868617575
-0.007382357584632379
0.005624894084561128
0.0018748192296147133
-0.022745271746132088
0.03181955574528576
-0.010220922037061115
0.030790939122539537
-0.007681457080749817
-0.004595923908424193
-1.8224278520362954E-4
0.009074991105934817
-0.010038205998662918
-0.015063404035100238
0.01657392458070987
0.0023564266759787834
0.018802131278148206
-0.03514040343940337
0.008775023382068974
-0.005754231800164622
-0.04784680904727577
0.032847985481629746
-0.0033853397752241785
0.016938103564911086
0.012406687393321458
-0.017954977601204878
-0.08611025292258644
0.3687195754774235
-1.2718299512787397
1.2790813611969625
-0.12899204386760896
0.03702693949003548
0.1112926266172443
-0.004308083635857647
0.004778078305280411
-0.008527597064705704
-0.0010934935686995832
0.018877560340871277
0.00786353874498642
0.009074211266534085
-0.015181009273958476
0.0011461804404412183
0.0029033631197414424
-0.02843414323744188
-0.002603411051603709
0.004960264013592645
1.8224278520371975E-4
0.006652793490819248
0.027952125160795996
0.004778093961008488
0.003320847694117747
-0.01712003976390849
0.01083177881068122
-0.0020569892821987856
-0.0018107534345182669
0.0017571099466808376
-4.1741184175667426E-4
-0.007746287059518676
-0.0029681774427821675
-0.013670488728348884
-0.011495878551563633
7.821782329353651E-4
0.0038145255148897533
-0.0023568686177169486
0.013670239219034153
-0.02093447689045053
0.008892129602297575
-0.01814893720742583
0.021598680675409015
-0.008892129602297492
0.022927441798716364
-0.014099450724134599
-0.0443969928466732
0.016991923829444002
-0.021052638224829695
0.006835550950380685
-0.02268035337901543
0.02939808089267953
-0.0014459713876116284
-0.015427744140268568
0.015180759764643744
-0.02879836918882756
0.028604555047845703
-0.019230552834141032
0.014881218326788017
0.01318851207286613
-0.01893060076600335
-0.012406687393321349
-0.018931042707741652
-3.643401051682815E-4
0.017966767154841756
-0.07596166634900875
0.0030981710935834
0.3201829166954485
-0.25939278712582103
2.4285155784461714
-0.1787039416348124
0.006717269916197609
0.007229841282330417
0.021952203498764707
-0.01846009142222306
-0.03260114657124373
0.015962833953503196
0.012588930178525134
0.004595908252696148
0.011613499446150116
0.006118057230975331
0.0037501374778590012
-0.016220859354820483
-0.03109078714660133
0.014034989954484465
-0.005024813171590462
0.004960264013592637
0.01451693529851102
-0.002057327179861271
-0.015492293298266537
0.009139540263932627
0.007381874221730985
0.027705447371377145
0.007745845117780633
-0.01947753720976597
-0.03109073006970984
0.0044784641348051425
-0.005936386197020643
-0.03145507017487828
0.001093051626961437
0.016873715527880417
-0.0030855488280537033
0.019359521340625976
-0.010402930968678056
0.007434737870167857
0.0059894266221529
-7.168906566999344E-4
-0.002485821468473673
0.01239550090239008
-0.04675462564806275
0.007434956068026339
-0.0031500979860515504
0.01875986671366543
-3.643557608964589E-4
-0.004296044572906116
-0.01844908170798689
-0.002121434396120883
-0.010584674735252257
0.009920528027185273
-0.012577598222354675
0.002902968145187629
0.013242035860899795
0.013735583872160832
-0.015556801035101082
0.001274795393535449
-0.018148776086458693
-0.008592588164441799
0.003996149581659865
0.025113061689737596
-0.0016399466495607236
0.00719949608099522
-0.029944606706160108
-0.12912224657750482
0.12167364810683384
0.28817330054801715
-1.3183652064831963
-1.20407726144228
0.04827658254043721
0.06077686943281467
-0.011036644087062352
0.006288614506618034
0.016755933512326904
0.022509650638133805
0.024385130007345254
0.0017461729650641586
-0.016756094633293993
-0.011185166278504799
-0.00889223364637327
-0.01283559231221575
0.004842643119006309
0.010584674735252275
-0.0068350675874791385
0.009256381319118262
0.018630809818832927
0.01300634202028193
-0.0023564266759787756
0.016391681795506187
0.0019924972010923617
-0.002785685148263676
-0.0054957957685653576
-9.108659186489454E-4
0.0033321225733968125
-0.017537862235947242
0.0030855488280538707
-0.0010930516269613104
0.0010930516269613954
-0.015427744140268597
0.014881218326788029
0.029215910840095373
-0.016873715527880296
-0.003632324150849163
0.005806637851135205
0.025948191959457384
-0.002891942775223367
0.025037310385080194
0.011689411871774608
0.021223741486286512
-0.0025390800914644003
-0.002721047601918188
-0.019541691393210093
-0.013970409485030241
0.012760194560949036
-0.010766917520455875
0.006470727482310824
-0.020987590048202207
0.007317101319853396
-0.017055885580464475
0.019659312287796424
0.002421402119986739
0.019765658303103735
-0.03822573406959862
-0.008163329692156843
0.01772003228853158
-0.01264214738035252
-0.004895714855594776
-0.0032676304922902074
-0.005324604118760934
0.018812907138797637
-0.010026520489101954
-0.10182649747501839
0.605131410704704
-0.22100480553695567
-0.1493098391972644
0.007651023491067343
-0.03866651693047729
0.06615488318582652
0.01614525351540217
0.008593045761908238
0.003020557728317651
-0.02057012112955408
-0.010520608940155848
0.02201616524978533
-0.0012106725215476682
0.0022390709464354067
0.026559266930935917
-0.0014459713876116714
0.013241640886345954
0.025230916437910547
0.012888721125695618
-5.465258134806721E-4
0.004778093961008444
0.013670956435522276
0.014881161249896621
-0.011795830619701386
0.011614071197399205
0.013970279675519497
-0.0180198959683215
0.007199761246038163
0.027952109505067824
-0.03412320635564481
0.1519566849043102
-8.329276504424766E-4
0.008599585793945807
-0.011892769383928668
-0.026565385577013358
0.023897428061486807
0.025928797014718397
-0.017155444201520764
-0.01248025020224423
-0.01612558427998257
-0.008473045330785368
-0.003457015909162746
-0.023321374548465057
0.006926539724833753
0.0326026479136107
-8.38910310736761E-4
-0.004867628525692321
-0.043766512203103146
-0.013205786875851342
0.016754526073993664
-0.006003542414896984
0.003394183098481162
-0.04216167585591776
0.09263504458292497
-0.015946258114292067
0.07687978286302985
-0.0075096550639205464
-0.030405904423857
0.03344224011741037
0.05308582493179328
-0.41301907479780026
0.8463980238080213
-0.3948550662122069
0.07172000397768706
-0.03325752110414035
-0.07767056087330784
0.033900412143605896
-0.10748615655538105
-0.03429765853625
-0.19485174032145805
0.08877869855883164
-0.03576935031764723
0.06177492061849489
0.003440541476729313
0.021395468136395288
-0.10612899091085926
-0.019433218927500082
0.07771717442469743
-0.10960989249610585
0.1198551146448985
-0.010664516790665043
3.6711614357537014E-4
0.05452385773511671
-0.08571055880426022
0.02989352593475829
0.054052196094464336
0.09676300860567512
-0.06990066418576935
0.04814130773238671
-0.08338163425663778
0.04400255032942159
-0.04645133271388054
0.014747571183297779
0.004957306513581924
0.021855983159634683
-0.2259270852724356
1.186652987002667
-0.8857273207501806
0.17254437613342707
0.06536341762249426
0.03944381538507045
0.0032097904578909896
0.041970448411189555
0.01919468902323881
0.06372147275187587
0.029906489263119024
-0.04837877175261222
-0.009866171637632724
-0.03668438113085951
-0.013378070036092522
-0.03652885635802276
-0.021099198237667947
0.04751247301029088
0.006555213943798756
0.01868104900216934
-0.016527319032351703
0.02459240733598621
-0.014698515139448436
-0.0029048485636557235
0.05971758951929685
0.019102592010290693
-0.028310375193332453
-0.015840981391196628
0.030244347405291264
0.0055742649413477756
0.03439373193426015
0.05124834540027464
0.0013143981645008193
-0.009518509389318724
0.010160441182550387
-0.15157771879010964
-0.3582270187761462
0.914125199675441
-0.49864627506941356
0.3348630276337436
0.0364606663837405
-0.11260149079126407
0.057179972769605736
0.060620257404274236
-0.033123717180592205
-0.09886947827920871
0.06002260459528552
0.033503077642684544
0.0829812219174439
0.1679354548860218
-0.11409370717834962
0.052030417722846146
0.10010931776068872
-0.11476074260044589
0.058001712018112626
-0.00796239353891575
0.08363330605186167
-0.26923338227184196
-0.06840990945125558
-0.15791950102444502
0.2975233563463448
0.018397329935622236
0.13338267387356195
-0.11723123635830028
0.010069066635411445
-0.06118618169613549
-0.18219492373994695
-0.17491504834093002
-0.041028312429599506
-0.03951506356701494
-0.3372155302108543
1.0262006860306956
-0.37201815576717573
0.1732738030715762
-0.002737216855372506
0.0861191665810569
-0.17718313012528186
-5.0308861620048E-4
-0.04102450825056232
0.10743551236445903
0.2068612344478924
-0.2322369257745462
0.031701176217126426
0.2691505818578083
-0.08859109835542137
-0.023630672848724384
-0.2152037668407989
0.14818767772752778
-0.04953789918296563
0.05819571040703576
-0.0845697650926171
0.048097199051082465
-0.07922595486680616
0.03882141667968609
0.015638985797714194
0.00959522978673204
0.014081789594640407
-0.1424964724694365
0.0995657649829413
0.068342154737361
0.013997557819004828
0.050977380974234494
-0.04944639915259286
0.026731581492173334
-0.24264689893556934
0.09260423219323156
-0.16786629472370054
0.11922224485666706
0.00577987271138124
0.030565607671470686
-0.028784363334893304
0.020366660424519796
0.023968364931655224
0.004577219969328481
0.01888913899926066
-0.01831911441904678
0.007238831017448063
-0.016869275057428024
-0.007411769713202001
0.008789945632944779
-0.01478025700558958
0.017151172600201214
0.009151738516140609
-0.03417145806961207
-0.03636008747168762
0.015294835396480425
-0.0020411647749963915
-0.016941782422811705
0.007004284759924394
0.007009225682901549
-0.011499487704709613
0.015750098125763702
0.06417228601500148
0.012204740537927488
-0.020737868063555247
-0.02212081526274082
0.017906252570328417
-0.3467257504292118
0.7620717420181099
-0.33032624159494844
0.14032720737068227
0.010571839921284536
-0.009647486072958674
-0.007271500996260326
0.010452225788104563
0.005652927327596816
-0.023140977131181604
0.00404197018178661
-0.0023117173193341325
0.02701279852553339
0.00895792983893667
-0.00717570992444147
-0.03652987347816908
0.007524462386074279
0.01005715254410052
0.011590145466140433
0.015919002750654426
-5.768497541582878E-4
-0.003994149008231987
-0.0028901524892891006
-0.01450293908110702
-0.01669158635498441
-0.0017347590532404977
0.08127394817598492
-0.04842656767580004
0.005368688012253369
-0.009520973846968001
0.0015855840007465297
-0.05977917834513536
0.012561239982114975
-0.34682699069383355
0.015633651217732233
0.21181148698167188
0.011037994483890888
-0.02999285241005603
0.007257239905098188
0.012934833560814568
-0.0038585476901919517
-0.00110720634094213
0.01602059006982049
0.0019662714431528065
0.01720925195789902
0.022618589064062417
0.003239617255803038
-0.023932916344130317
0.006786304882569621
-0.02216014884526309
0.02117944825533462
-0.02187312363019053
-0.00893550233607879
-0.011832051609288208
-0.0033257994433285986
-0.03670769444787067
0.061919508745078816
-0.05411607266514888
0.03317908468825571
0.0021596773741067287
0.015130630140687454
-0.03433205830849455
-0.10043989629797294
0.06077321589777901
-0.16738140687143824
0.11584111898835571
-0.007691423713523675
0.015060118244630221
-0.019221005212399386
0.02719665884919639
0.021209735295649963
-0.007675150581412802
0.010599678073343662
0.002307981001169891
0.034011597694395504
0.034646762594778106
-0.04368303921467974
-0.03517379828469543
-0.0208007417401163
0.006035729244355768
-0.022160561610545533
0.042460268526361575
-0.007960257068378844
0.04600959063396738
-0.004099074652388561
6.33163304142835E-4
0.03199528979071493
-0.01586111037252996
-0.006459907870174183
-0.009403407785502273
0.0894091618823245
-0.047817534247750176
-5.01000070696464E-4
-0.012800755792061733
-0.009325779738218831
-0.2662308840042766
1.0592778609789901
-1.0246087397176116
0.17752739027056433
0.06343805658209013
-0.011128856551625422
0.01819651577344176
0.014164736030695013
-0.01284404278248056
0.016648512317818297
0.008433034124048297
0.015249071747919951
-9.106177176333649E-4
-0.0014694521743906378
-0.001424148208359476
-0.03764744894445411
-0.045930744746227506
0.022008149288874165
0.01777435930840697
0.028045868916525954
0.004934401999839825
-0.005941645647994243
-0.003621099453500254
0.0023859111473826774
0.01567742452390685
4.973445228985965E-4
0.003552932767608378
-0.012808031875698263
0.007464605390798944
0.021386147073266602
-0.040642706850718135
-0.0060583367504415024
-0.017351122710654872
-0.010326182061485514
-0.24838509964065478
1.1991422939327427
-0.9094459240435221
0.09723682198119976
-6.168712498633537E-4
0.02470199067769764
-0.01705630052969588
0.0147148821624529
0.003753641720197021
0.02016737212492638
0.008946183635058528
0.007692822051502235
0.03732491060180421
-0.006346508773475526
-0.022915662638237817
-0.005362145671062862
-0.019968908042684592
0.014351487809807028
0.006689332883982387
0.007661352127561052
0.023764461801190035
0.010843157218543727
-0.020769233442835447
-0.01645388622878293
0.011946871062992004
-0.004817346446610354
-0.01568610969896679
0.009622746317027565
0.08109474066289236
0.01689577611216067
0.008989101738174243
0.014853918863574608
-0.018380849651617785
-0.3261857412673666
0.24997756158655063
-0.23346533334452466
0.16143680537327962
0.007530575030422922
0.005556779271531594
-0.01265899003286202
-0.006356370485976224
-0.016283662763374663
0.014820070035493925
0.01058717167865033
0.005256522380978744
0.023321250426666103
0.013621992641523195
-0.027622330753551916
-0.0054853251632191215
-0.025903082458932178
0.021016835420563804
-0.00567687858252058
-0.01910130354690218
0.0019045139024815574
0.010906303755084792
-0.002301070354950351
0.0044543514606610905
0.007250423855838715
0.002097539527629399
-0.024657704473979733
0.00660168774295576
0.0794122619414626
-0.04891077458521246
-0.02431014653333949
0.008970542135876168
-0.025536984819811818
-0.31936622767875245
-0.7579873576248037
-1.0858671923892111
0.14905116210846533
0.004478910400244188
0.025376693286877403
0.012869934375907395
-0.020840580928454235
0.0018800370040092775
0.0021343087992989358
-0.0011229861403681315
-0.013189552440869825
0.03899820109395709
-0.029107945847662898
-0.029355080760338364
-0.04277460237791333
0.021305966822571503
5.0232666340474866E-5
-0.013078870233921512
4.429986490973835E-4
-0.008971346087459845
-0.022549652494185824
-0.0037282933557579966
-0.04957456266929641
0.021238311961243685
-0.02641180667209409
-0.023147160210171436
0.008868298597507778
0.049198917405787516
-0.010945631557237285
-0.028237344713372574
-0.029852203459280656
-0.00523045984261628
-0.38464070174109766
0.2344409099331458
-0.0027941216423115044
0.1480824519618345
0.06780482421765324
0.03456793427811301
0.010705188816972595
-0.04310254503902102
0.049457250585673226
-0.02093847167129509
0.005737070627547935
0.004277149481390197
-0.027556078914071993
0.017575756265375414
-0.023447997155526853
-0.03218456427995911
-0.01125889223254752
0.02806351850794677
-0.010095689049098107
0.03141299145947773
-0.056891621840972906
0.04082502217150703
0.001415864425728738
-0.037288802874215016
0.004699009817922468
0.013897287221643633
-0.004135915043152461
-0.010415559115691043
-0.00904266698028843
-0.033651338465089255
0.006235023483249207
-0.05210214422259947
-0.0030428758137193094
-0.2533354727525518
1.021152754849029
1.3200004482114356
0.04872470009841372
0.03278687833021468
-0.016871915563471035
0.057924858440386466
-0.0587710786879679
0.0673012734335296
0.009265294781090536
-0.0072088783874264505
0.012766266931267783
0.011684368681777368
0.025367333407462056
0.011800343404322032
-0.041595092746107745
0.03256313333152909
0.005758451806996474
0.03159296698686057
-9.328614271592681E-4
0.03848568965407763
0.04340141988353774
0.06031202523391356
-0.018652042712793217
-0.03379305051745503
0.0074370231327776795
-0.021615294759794026
-0.014359756160782031
0.0019977667090867518
-0.02418287648505201
0.02760072568260515
-0.03860769623526693
0.011570470943916604
-0.09691232917035586
0.8341265365185718
-0.9031588758466487
0.07345426015155243
0.11438155397073665
0.016432690660071393
-0.04411753845718689
0.0225494882019544
-0.008034535158384353
0.04302032469001904
-0.014608812860660715
0.00877892591483093
0.01078786488427952
0.004365054916720337
-0.04048386760179054
0.011539244202906154
-0.27448840879545383
0.020213367412234867
0.020832997790149688
0.0793763275713564
-0.09104697142930977
-0.07889166724055227
0.021212013567950872
0.0026015395524619147
0.026840711371160626
-0.030276465165157376
-0.01586464025683048
0.02283170682630321
-0.042933543692720406
-0.03378020217342642
-0.05528323317161327
-0.41610863100409873
-1.2366592186447978
0.5607420344734302
0.036367365369247694
0.20401246329364542
-0.39188791103796955
0.009804051930062327
-0.029396646264430334
-0.0745633271272221
0.07892271147199323
-0.010576778681068122
0.08365904015859785
0.12937354347287094
0.08433299653385991
0.02654302920766878
0.046289658260934216
-0.07793237238359141
-0.04207959699147468
0.6543719376143972
-1.2180972254903395
0.18797639094687565
0.057048539526755995
-0.030489388651257027
-0.018624622067015307
0.01398564253741081
-0.12665477093685562
-0.0010733242371248454
0.06423754779564844
1.0078672401151421E-5
0.00945689223207659
0.019676619116914002
-0.048577491770261
-0.023998439963669578
0.17057354756127624
-0.034883853658325054
-0.1476756491891839
1.7828953870652893
-0.39908896052069687
0.0029179619459594602
0.07484330970774504
-1.369992266322933E-4
0.09002900998121535
0.04428974056810298
0.07202533003996632
0.16267009743450211
-0.3091086066972274
-0.04727732926313293
0.11944343863045224
-0.07190547399359877
0.2614367723746542
0.17478697366499568
-0.29241539028993635
-0.2999501406888076
1.3828902066157702
-0.7759309448031455
0.1118949609741714
-0.03207989089903841
0.07983187564109248
0.0599282717511113
0.052785543133776036
-0.10453384124435909
-0.08462380292977568
0.11707688062282048
-0.002992531256483879
-0.02295775467393397
-0.07323503428461214
-0.09898340680532663
0.1931681596388944
-0.05154963286458609
0.025403406439533965
1.5790085440648167
-0.2759395572625802
0.06307760182124715
-0.004515682749841911
0.00562572987146967
0.0876756289342316
0.023141545391778904
-0.10723846961439937
-0.012439147829406664
-0.013855252349421254
0.008592996942647223
-0.003154426752357555
-0.01307495905267136
-0.08530725926214595
-0.024355337157959924
-0.028225143749701982
-0.41443286577819
-1.3997824966358414
0.5099607307376471
0.024006720855336266
0.008040713768759648
0.00850438897096094
0.05290397619652811
-0.10022228076647044
-0.07626289346899816
0.006650509300632465
0.03603692451720683
0.012294919313779868
-0.034099589746372984
0.10193645503920051
-0.07494237597433423
-0.028967342568293863
-0.2132837022150357
-1.8285598917233035
0.3720907686136019
-0.017970326668907657
0.015132132859442128
0.04899696188215523
0.11441520583714809
-0.11307202169234207
-0.027675329583148774
0.04954379662818556
0.01032350307036581
-0.005361603334692622
0.10053993943686705
-0.06201115429952468
-0.027036910769516462
-0.3604822046848688
-1.7328447257786193
0.4560165907716567
-0.005893298713967018
-0.008631042417302835
0.007375555589238329
0.028324461339457045
-0.13188153231577376
-0.012886022658085887
0.03250660201336262
-0.0011313812772833168
-0.016329593418066033
0.0012990751026186673
-0.021930648240596737
0.1484954393971209
-0.029446213142980664
-0.09147757196419255
0.835694820261605
-1.5573096716593815
0.22274858226955246
-0.027817811408318793
0.04742852662507545
0.0146922379782368
0.053038360698342
-0.11076798235225715
0.009094228087023327
0.014339580324679049
0.01980173159390658
-0.033355547574929034
0.006586393714207604
-0.0617072630986509
0.13891153343719184
-0.058717748606629844
-0.04161267160044713
1.1700664994856715
-1.2750636969915776
0.16539876161938613
0.011595059337863655
0.0031127309867996205
0.04706599545348167
0.044954352057580554
-0.11786592620994527
0.0054680391533478935
0.04141310621809266
0.046588675239941264
-0.0051669949627667355
0.020367654112704275
-0.035543877164248956
-0.04451114349368836
-0.03136937296056908
-0.3350513796992474
-1.7095991559119559
0.50530664266349
-0.01692512237569009
0.0322453859059668
0.0363434481278365
0.035205018147520875
-0.09673506698185745
-0.02721841151226623
0.051313417468130174
-3.694839449101383E-4
0.01636673556965263
0.005018093188245443
-0.039336804100457604
0.1659208917565933
-0.03761227921835592
-0.05693999186875001
0.2573178099252318
-1.7795597518708397
0.12914611634351908
-0.007791212989799809
0.024264124588541568
0.024159987919910756
0.04137923213584068
-0.14468524590831575
0.021494381507861527
-0.028154207237410522
-0.0013278647618033823
6.183576078127202E-4
-0.02501400462393865
7.548566397061248E-4
0.02473169611944008
-0.04373722095574789
-0.5203914625095868
-0.28362524983354215
0.3342443430565475
0.0078132992924189
-0.0068745818465182264
0.05863269596145917
0.049086091119332896
-0.03875593429917033
0.007426244814379248
0.055106789811515
0.004008070159606258
-0.0296382565152223
-0.013952768900173133
-0.013258670832924008
0.10056492838714709
-0.04275353775872218
-0.02230891490627549
0.6459652106568843
-1.1412505871983438
0.1487421125950557
-0.01987793190876144
0.0697202686227707
0.044956808509772975
0.09933974543189368
-0.13308126346024718
-0.006495836339276221
0.01746430056053916
-0.030347943132809384
0.060601718296534116
0.006360264152002609
-0.04664119660128063
0.17101446559622896
-0.02253008113471183
-0.1646754148226633
0.7983345306254294
0.42879613493240537
-0.009412648895419942
0.013680411989020449
0.017092969968539536
0.06795379423726233
0.20124813223173732
-0.651313410275519
0.1621286021289398
0.09465466570766172
-0.14851482429131493
0.12897485989535773
-0.032425247850171146
-0.09393005484467629
-0.023943371743637983
0.8083997688999238
0.6850628569204247
-0.28576048965423767
0.006226755034969841
-0.05492784605727883
0.08783022270800137
0.14832510375489383
0.015165726578546791
-0.1248173498719557
-0.6321102744412799
0.3762480901948215
0.15338269327528553
-0.1602951082917984
0.027120503647305932
0.007614212811361116
0.04827281498808035
0.13800478895905943
-0.24299356320618024
-0.9128516624717041
0.47235345576650867
0.0874700876275766
-0.5782578046734113
0.27268896475280713
0.03072807314450568
0.11081957898501413
0.35949929225736976
0.663824682172086
0.015269001602159578
0.1188041228330677
0.4209253118841023
-0.3671646980411251
0.18280102240462112
-0.030534735650161644
0.08088700939487689
-0.2320344790987545
-1.4213627279820389
0.27961313468360455
0.17752478772431063
-0.3357160107082759
0.06116166997081897
0.04750823540396036
-0.13465685304464628
-0.138300656580662
1.0055317585027987
0.6199578388630989
0.05411783353929938
-0.0025299519393488373
-0.08130836699656803
0.061945201192312484
0.012407421075677102
-0.22058218507548166
0.8010450372004387
0.5096671728942925
0.05959632399805971
-0.031123673331466876
-0.06866083115702426
0.016651301399816083
0.2618152036965584
-0.23804372915665636
-1.4906822297886875
0.10381783303287262
0.25894541505381713
-0.3296972625568349
0.10107219058695613
-0.005945578998361147
0.060794454138972755
-0.2521039260620655
-0.06168625585901358
0.3464658398728045
0.08305152122653066
-0.1308835533332282
0.014309101930490974
0.0327620532402827
-0.10217760110569438
0.239852555378375
0.5536274433843726
-0.3302224263237246
0.03893778357156183
0.24771646722177187
-0.33255697093419273
0.13184004204666888
-0.05999352785637504
0.29981583777572096
-0.2769143736969154
-1.6566076993315606
0.13990112249386558
0.28263764326538343
-0.41873979461575744
0.17069548285684277
-0.0051968595574118925
0.11689227257214034
-0.3531707558124976
1.27429285904853
0.15388187161438405
0.1327667673504286
-0.29224300739990805
0.08452595559801862
0.005738273724205864
-0.10316181679374326
-0.14096845167592212
1.4746404364328496
0.342665712393065
0.07603988931007163
-0.04045581188459004
-0.05706682987336781
0.04620391404254091
-0.08233049308897455
0.226122276392038
0.11040857317549899
-0.5192281468057848
0.03890404421312983
0.24473141698185236
-0.35512011432606505
0.11589377151451301
-0.02432564241714456
0.18546903307462215
-0.23665753142089355
-1.778376304197656
0.1632367542967329
-0.46389203317563266
-0.2152784435688771
0.76185042514084
0.10243931388549381
-0.13573167387716628
0.15279964085484032
0.7581119669044225
-1.1134255558760109
0.029731961194683708
0.3485206483632079
-0.7057316663042678
0.48728362359116373
0.2920897534927613
-0.018478275292745983
-0.1061846372551065
0.7575488807021193
-1.0860946986589488
-0.036781607508859095
0.40991407409710295
0.6073568621982086
-0.712993112602588
0.27262092231081936
0.20094912919717445
-0.5689835798710711
0.27793873146255976
0.4133375434832827
0.3205502979565656
-1.1994666944269405
0.49487363625005165
0.1176249983376906
0.3255761058259343
-1.0949294452746428
0.5557681674444997
0.13106716514252692
-0.11144501934471625
-0.32515570565028584
-0.0850195753731211
0.20763410819806422
0.2199109703693386
-0.8801713062126706
0.4289123434157952
0.19463772481967478
0.1635342752346322
-0.7920309423907705
0.7531354435418917
-0.20922071011553336
0.1475905800344263
-0.22470142458289877
0.7755372732050905
-0.47290333510515614
-0.02585425693406364
0.3050001355213636
0.3795104899439199
-0.678043752546649
-0.10692400618656789
0.21139317837765
0.44557104849711177
-0.8171450527457218
0.087887879187314
-0.12654801844902502
-0.10933336149883496
-0.5827268398125591
0.17166739345429158
0.1942496162244579
0.5561200706224482
0.3939559658369007
-0.793575171722649
0.4271732853338565
0.686508528284111
0.445378490560127
0.8840884242823258
0.3325181778455792
-0.12800240685561098
-0.3958299376135311
-0.7788079330916505
-0.6044047857244197
-0.5955798108210238
-0.7020010259700913
-0.5401879933331526
-0.7705763198350408
-0.5578110270589552
-0.47726858289465635
-0.6129756584809166
-0.3513863048979634
-0.40296258759582243
-0.5298713061032658
-0.14417414574917264
-0.25748263556836154
-0.1587793287576553
0.04215921393361233
0.15614310686423297
-0.03189438940560303
0.33714399602770917
0.5319600209004833
0.19427966994703116
0.5434230336929928
-2.7903270247750402
-2.7370625078784214
-1.791858358636877
-2.0897689849603256
-2.4328525063446693
-2.111199538310077
-0.8902132151439653
-0.5008659659701087
0.443359099583464
0.7321983114330022
2.293059755933757
3.7160461918027146
3.8243021721126813
3.7074938319870983
2.6134320071830883
1.3352400751339297
1.0325425005097577
1.4130320458048957
1.6621311852654348
2.424499818099436
1.9281091205160517
1.0515248644167132
-0.001473757402319642
-0.6875550586832796
-1.6209747787049609
-2.5096102434774394
-2.7441688863490863
-2.904095085008235
-3.8412420335933155
-3.153506917760689
-3.1631916476802475
-2.6671062190741424
