0.047616719173374414
-0.1334359269784551
-0.013683647423963378
-0.02668083853668263
-0.019458345955561878
0.007361808729759498
-8.816374084577878E-4
4.3999303897347946E-4
-0.010544609211099783
-0.013758769338525906
0.004594442656475544
-0.00797901045427508
0.006911117431630683
5.462689601998432E-4
-0.005526601417037565
0.015238776748368406
-0.021598594577003048
0.0010553951402843334
0.01245288241843763
-0.006338972017098252
-0.0018142305683446491
-0.011901582815458056
-0.005963664168474825
-0.015041025717773875
0.0076313613233194785
0.020182968891043117
-0.028459407856224805
0.0058715821261222274
-0.028007485001502175
-0.006530127341240239
0.0027317910913030943
-0.0018019972861114779
0.02459412508724183
0.026338353715809257
-0.008930447228239114
-0.03145397140999658
0.02516495267835879
0.002887371433447729
-0.0053199343906394185
0.006762352730062603
-0.019962007093525354
-0.005714957386467788
-0.009037422148933646
0.006902070502969704
0.01745829417235544
0.00952347122941383
-0.025459715501872537
-0.006779065948317675
-0.001515686808293601
0.03552303831828961
-0.09093192110564285
0.012918082952870374
0.017613353848370098
-0.05483848350424404
0.030085847787288608
-0.004387558430398487
0.004290415704671292
-0.011435293548218504
0.0052397521234081035
-0.007151777016516729
3.460132156976256E-4
-0.07110803211457989
-0.08410880814220485
0.16743765881722816
-0.07720127310006485
0.11979900615947806
0.023888497582772325
-0.02571650225609018
0.0660749970395289
0.007403166845819167
0.0037465833412555927
0.01057109839807897
-0.06226306149373248
-0.0021569827238065754
0.04641410123571253
0.002028563884336988
0.03521226736728952
0.006636944353699447
-0.11239716100132541
0.06285884660563916
0.02281702318855234
0.0035172643424072614
0.013129276059403495
5.53686755433447E-4
0.014315583946836354
0.03421630684050085
-0.011144880517681331
0.01891119357128802
-0.02401166232111386
0.049405793793342395
-0.02426370101490897
0.002069416749371389
0.011154230912826357
0.002921146792256711
0.012359940403164592
0.0525430054075738
-0.052650611043145376
0.011737318302580114
-0.007449252927887867
0.016277327737573257
-0.018066395476412037
0.051555479076766636
0.008536295765538642
0.01999383038976829
-0.03747515426129658
-0.04777145495780209
0.04494001978367014
0.04545564898132967
-0.05014256374426809
0.060003884684710344
-0.09365102988994707
0.04078213736206826
0.014802249288501882
-0.029595217088827265
0.020591230700273758
-0.10632447857295116
0.007409575393121849
-0.00977449556631049
-0.01693523597906246
0.007895246300503856
0.01505446057037492
-0.05012210260368906
0.028494040573361527
-0.012981299245586893
-0.012683416133889907
-0.0076844648304565995
0.009552882169805432
0.027388718213313845
0.013346583309930547
-0.04182425482265892
-0.004056524359946596
0.03276446776932815
-0.08631675900701366
-0.011453192179184815
0.1644816615500308
-0.28487564819966055
0.010932007848710647
0.008601924461119709
-0.019433345349866293
0.00860078781653002
-0.022417471555081385
-0.016259266660100562
0.03899121845290923
-0.010711768502012227
-0.06488811574811376
0.026851526222369915
-0.035154061575991866
0.018771443023291437
0.014865964787956277
-0.06617283524050008
0.015059518464902596
0.0460259947726573
-0.0012073073290345456
-0.014644553965705787
0.02937393993382985
-4.353264588318516E-4
0.018639748944603043
-0.011086306452453749
-0.016193802466461082
0.011274465363631758
4.614904495301442E-4
0.0183748549638068
-0.013742255170301037
-0.014464515884857018
-0.01569816684265493
0.026823037572393127
0.02638965759975808
-0.02137654678117312
0.009324733663001942
-0.007510309792507534
0.038729489828527294
-0.01885441531752229
-0.018308650637316983
0.0041218876608618725
0.015660893129698806
0.008180212438568618
-0.018872051328158616
0.00893532473736591
0.035904774876324
0.013101387344033464
0.003710810108163683
-0.013643360221833458
0.025515484696402538
0.006383462994915752
4.388242436457702E-4
0.015520696070107715
-0.013466422913472557
-0.004213416262473345
-0.020755099680167616
0.018895595602177292
-0.030448529555172715
0.0014751939666922754
0.012719683057750232
-0.03071974810465141
-0.012388369761730694
-0.048441478229474894
-0.012104552952643191
-0.020760472653184772
-0.04424317160487068
-0.016467250301552237
-0.003170915570988593
-0.04637618502882725
0.028724761561889415
-0.008242482430216545
-0.11786409682146534
0.3191478316604636
-0.06697635145809686
-0.00828288108662461
0.02553138266205951
-0.005334943815620427
0.006848990952160239
-0.0676356392735272
0.09847717647455954
-0.11635426200229698
-0.028073791481817607
-0.034243152985729206
-0.025315719577402605
-0.014079640441442644
0.01381711795367644
-0.028924379300081862
0.02950158813241754
-0.07475218864277047
0.017269851936070703
-0.03498241882481675
0.01689192915739079
0.04547469516967773
0.004802644705967965
0.009715022821867921
0.02060376865735292
-0.06904400201124725
0.02970599388157933
0.018291639928111458
-0.041982283652583316
0.01149042655898111
-0.04025041661752955
-0.04276460958717207
0.009766660271628376
-0.04230905772112096
-0.013613738173112956
-0.03751698712709255
-0.030002899164378632
-0.025686252278314926
-1.8433536043832306E-4
-0.013959436031281584
0.0753715535382633
-0.11145144003394764
0.11439270359761193
0.016356857616054522
-0.06293441112291144
0.10661820006418848
-0.1180664413092461
0.10350450620747348
-0.02772252238761244
-0.03148096037906135
0.010566948444911645
-0.025231565690358608
0.039672638983189026
0.02216470961731448
-0.020058063820924003
0.0027167284136973904
0.04516461439243292
-0.11377763500349526
0.053966592813645145
-0.07977423087232971
0.039993212878258334
-0.06678600957796732
0.020262035909047675
0.004294661081226935
-0.012510216676640318
-0.0018842799086028587
0.003246718555032795
0.03722343945910471
-0.20545265107523694
0.23360866438687855
-0.10280061657584774
0.052975542762794134
-0.010578613773501076
0.00375028437798057
0.07343197161379345
-0.05865643127464581
-0.01235869422121226
-0.05620520912804867
-0.02646242885360297
-0.04572718641247943
-0.022852710438843404
-0.005162961518448861
-0.06304125511071589
0.08070870092914462
0.0284755438513187
0.035978900807662584
-0.02893392617811491
0.09449280227384893
0.01707698599013886
-0.03607755431541988
0.029202321423538253
0.14585080407683015
-0.06058439344358961
0.05957854689928047
0.011446190857469937
0.025242222017890538
0.006362168158613652
-0.009892516878663646
0.019306767273874096
0.019624868272944213
-0.028849793007828924
0.04311990792351161
-0.015303361046439694
0.02003337425716599
0.01159295962018234
0.0335959722541946
0.01532975816700093
-0.003754395978894008
0.0045999404736531135
-0.07340806105332487
0.06928454857351352
-0.08989971937239588
0.004219527606341762
-0.04207261347216278
-0.013998081059385221
-0.025160588260007125
-0.0033492962822862307
-0.04366016113486549
0.04558181291414284
-0.03277310323478793
-0.01898807926881481
-0.0638983581291893
-0.05933630410118823
0.01718095624730666
-0.0209233923698732
0.005379270846301375
-0.01122974529518913
0.018165073225250048
-0.03035028620569246
0.02079902259132478
0.03345245539510154
-0.030201170637192375
0.025622373350242512
-0.05609853158250462
0.052578476762962255
-0.08833582619989352
0.046226259617588514
0.3114613569618204
-0.26755175868691994
0.020683474054369454
0.0765087248138262
0.030831602593874522
0.01203430758077137
0.012211958233473895
0.020882236038354592
-0.012989800983492478
0.025823759759158394
-0.004090430651547156
-0.016522119125945117
-0.004716331172220527
-1.26687333437972E-4
-0.012524814914260426
0.007077092566446591
-0.03210954473675966
0.03374591502055836
-0.04188102374869597
-0.005495578012492383
-0.004229181468020295
0.007563227913715401
-0.0037184874898012962
-0.0015648721873338517
0.0122967367441272
0.0031752350839756097
-0.010503569186997852
-0.006444465406480013
-0.01589823542815542
0.011946552858603167
-0.01866918338796284
0.014698407229598014
0.0020093159115133416
-0.013979249336237936
-0.019793714403819863
0.006774716945136625
-0.004239228128188204
0.019934247483611594
-0.009872554491152017
0.006045295191929499
0.026279567966905087
0.0036972935457615513
-0.005841775652746524
0.003155389003929813
-0.016915607098695575
0.011850844263691322
0.0019312193741341972
0.01745427788649056
0.005460785562339553
0.003820529925500339
0.0022969149619308828
0.030950408429817423
-0.010200890099203885
-0.0074224630088698396
0.005792301432630112
-0.05711297296550862
-0.008409608432117285
-0.0029210632598474923
0.01594875678022671
-9.647171881687414E-4
-0.014768325636998925
-0.008465493934080137
0.006894070706280173
-0.007838911773758844
-0.0238420760489423
-0.10499405475195658
0.23545959708006317
-0.06148247491107435
0.06582776440037563
0.04900193179901435
0.03617702017336561
0.013396659165840787
-0.008025066495732414
-0.004083965877935504
-0.004828637467733581
-0.00553438401406469
-0.02134407462037163
-0.0032568661074467847
0.0014331542110996923
-9.287940736680995E-4
-0.03205824085282728
0.0281957547040943
0.004887206016975218
-0.016380702622062794
-0.006357369340904327
-5.030415242538583E-5
0.0058531401363134325
0.011466055087082145
0.01836982432102708
-0.003526549633831151
-0.0010452857188831214
0.01180017098631255
-0.01710177997461581
0.0201448117540129
5.875261839806455E-4
0.002320908260682374
0.009471839984088428
0.01156113307545683
0.009278784261810245
-7.200266920263717E-4
-0.007969529126289242
0.0012378516682685975
0.014246484374891843
0.002608771911226746
-8.816374084577826E-4
3.7495971612008967E-4
-0.0012361857123663594
0.0034935568068830986
-0.027137429276273883
-0.02460282388339953
-0.017700536180750945
-0.0013555394735263477
0.02962266134126132
-0.010641534737164648
-0.01468101237176078
0.014941648969500551
-0.006458891110440412
0.03720708319904939
-0.017875641776571378
-0.007337032899179915
-0.01404808174531011
0.00916634077045591
0.006215952837021939
0.0020663020372292925
-0.011110406159453488
0.008393909570760567
-0.018603150333585942
0.02466788724691357
-0.08331920513631402
0.05881056102871984
0.09036060232185736
-0.3139502436920447
0.038624783054440254
-0.004780615473696084
-0.03704407085110095
-0.002976118035391313
0.002669208990625248
0.010432853622360957
0.01390330055456675
0.0122795590859359
-9.020488206693007E-4
-0.003317216920023746
0.016282676472244833
-0.0063688647572957245
-0.0011697182586646107
0.006900187347404961
-0.008004220684212505
0.018687928844272044
-0.03226757356663473
0.01272803098694297
-1.4976443307516615E-4
-0.030510415390843947
-1.9705476557143123E-4
-0.01878472343751256
0.021054675946765817
-0.01646045048993626
-0.002892402076227445
0.010302801602045636
0.028665943949782145
0.011641163417380643
-0.0044473439108261665
0.021131290952865072
-0.014363821313184727
0.002867525353385425
-0.005439288151782986
0.023550659762690176
0.02758022166995909
-0.007819631025928087
-0.00667276077627562
-0.01364511244455734
-0.018828562816309836
0.027239037312615105
0.0273981995413161
-2.0976744377270568E-5
0.0012608452355130015
-0.00522230986510645
-0.0500347944007663
0.012828755599226634
-0.015569548953155096
-0.011951886967883418
-0.007283194260679037
0.03180171869873648
-0.013165876270224974
-0.018765847048362476
-0.01480936566111732
-0.00642240266375769
0.010839589234259574
0.052971934695117844
-0.08669767091833078
0.04105560176895068
0.2444724501928579
-0.2200277816890256
0.009651314944486396
-0.0343061487146379
-0.009942320973294741
0.03478268727498335
-0.015099011574963987
-0.010635721562556794
-0.019160783777369274
-1.2547040226839126E-4
0.0022001203686904357
0.01786271222934804
-0.015381642008474087
0.009227575007106841
0.008538342629000634
-0.032459728622267314
0.004875490666443286
0.006282420290723657
0.0020332618098168748
0.021772655775330114
0.039512914156800444
0.003030322960391435
0.03050874943492523
-0.006555685703648003
0.007817616937506062
0.017811756477951822
-0.04097687457278307
0.02223588962182176
-0.02157293532233292
-0.005456552076812369
0.003546743846396639
-0.010746376527559045
-0.0029576379733518687
0.013789010211242982
-0.025087120741106504
0.022525071095765136
-0.009708159045449572
0.004293081392096942
0.007487713531369192
0.0030542299923047855
-0.004127106257281021
-0.033639145408580186
0.004281934108175917
0.005886614763050751
-0.007031905323622606
0.007178352470284621
-0.0197033845842075
0.015406635038749018
-0.027683611969652078
0.005278025567854779
-0.028321659505704058
-0.0056282957202169505
-0.01220417563643051
0.0075497302998483225
0.006124608660494621
0.0059846409128850205
0.0024013223529839624
0.0015655237863210908
0.013592273537563499
-0.016725769597969033
-0.013394956906310375
-8.509621364157904E-4
-0.006792462669938878
0.020594937719975996
0.026560431552332765
-0.09225906478550462
0.03712250094781041
0.28176311921234043
-0.15300758082399163
-0.002680723355732613
0.013372162443415728
-0.013704514174590753
0.0030026115450521966
-0.006525010431606047
0.008197824496084813
-4.2626360005251947E-4
0.002760017875598179
-0.018703309613703922
0.017773034008722988
0.0031303959736713478
-0.0037906371852865148
-0.012200593749890572
-0.008053959504455678
0.012692107872458815
0.0033980654116501467
-0.005547230028911568
-0.0037069058065882995
0.029434956970834862
-0.015386440826183494
0.014687477145372385
-0.0022714171956443267
-6.30458241191071E-4
0.0063580410813018256
-0.0012771465272025256
0.01756558445049671
-1.3643172099363221E-5
0.03678502030948405
0.0261002142601166
0.01053769541275537
-1.508902564310707E-4
0.010772583243124606
-0.0219053288206391
-0.005719075359150388
-0.0072240603792551525
-0.0032172748395846414
-0.001661666780574262
0.003463664066685743
-0.02962266134126135
0.012809662010414138
0.0062308992071288686
-0.0035621246158284636
-1.6182791609385368E-4
-0.0021992675001755385
0.017552893265986916
1.8657922208088653E-4
0.0037273964280491014
7.947585425445047E-4
-0.004180760471175966
-0.01132885613859221
-0.030828761011264152
0.026989572523372418
-0.0010939796190671592
-0.0035606758595886556
0.011370711469595288
-0.01942676336191663
-0.0026254950286829816
-0.00970248386123836
0.007136048114548809
0.030356851871550027
-0.006178810056906672
-0.018399717061224438
0.00955202930129051
0.015529184031074388
-0.0896259423336834
0.05968875454105083
0.08410111357252209
-0.26476329671553583
0.05313548864808981
-0.052292150869924545
0.039921161340557426
-0.02826968939732708
-0.01190136561579562
4.0709967455318345E-4
-0.004135432167642113
0.0197884015299881
0.0051050009804396185
0.0024285537288991953
0.0036572678785581113
-0.00829628504522755
-0.02922815901159593
-0.007716892325238903
-0.024933991621170333
0.029790954030966828
-0.001298202480845538
-0.0019420866971102601
0.004114923624011334
-0.002819155285560892
0.019967254935983985
-1.5291192027369008E-4
2.7755575615628914E-17
0.002168127273249505
-0.007406865039742682
0.00355665957370745
2.6365315211410514E-4
0.003211592597801103
-0.009985309811430695
0.013761000626610304
0.0018348591802351197
0.01298062312199056
0.013637764246871572
-0.006890488819740224
0.004119106460591507
-0.005873334348862521
-0.00812064415781984
3.8968888654814654E-4
-0.0029799325411280254
-0.015887305343913277
0.008091533949450653
0.0030727108485037354
0.030813442611141263
-0.0014092918451891322
0.008192142254301336
-0.004965603286393274
-0.004225382381817827
-6.445123096800835E-4
-0.01603038780369786
-0.009148945912618552
0.007523636645853354
-0.0023186053311677786
0.03168893060345058
0.02391547466085799
0.0032732612337934702
0.004244127838127117
-0.012670030504328635
0.008171730842073378
5.363532328891071E-4
-0.01632493342753273
0.011131732341143227
-0.0468206771103135
-0.023535991140287427
0.2512985020964721
-0.16374108424933287
0.0652898060916602
0.04687660604209172
0.03052924711395838
0.02680520831524738
-0.01308069613525403
0.018330233053164943
-8.066883582772202E-4
-0.003987822883698793
-0.009625730864742423
8.666910383508565E-4
0.005025171567142078
-0.014191946736939253
0.0010734889976063283
-0.026750670677261876
0.0025642809334092843
-0.002051355667122369
0.004878724420480016
-0.0021885386854610094
0.005736151330523914
0.008521480328272553
5.462689601998406E-4
-0.002836850081343465
-8.149527550935683E-4
0.012155754639586281
0.012012106847619549
0.008788715366926561
-0.01536713003770837
-0.007916342086792143
0.029577822230957063
-0.008411521628276838
0.0025371875479072367
-0.015655428087577673
-0.005902212732161384
-0.00530608864426901
-0.018511023625230473
0.006140786587162533
0.00746075107870799
-0.027784871873490092
-0.008839671118355607
0.0033188828759259797
0.004082082722370827
-0.023698588440648496
0.03192372352189797
-0.010126857248137371
0.02957235718883602
-0.005766609402887007
-0.002842315123464518
-0.0013163826049890533
0.010284537945525671
-0.004698151048076884
-0.016312569212458713
0.012914503800792117
-0.0049708511288519
0.011586539512606481
-0.02741427657575443
0.009670918107533562
-0.0060564424758176374
-0.044100805772826275
0.03211221042415252
-0.0021074729941555972
0.016026588717495488
0.024252625372500503
0.012394598450686863
-0.10175376535264433
0.3680302090069252
-1.2418080478899465
0.9567169295060612
0.19384033919314916
0.023267999288568778
0.0856351828565353
-0.017617584599386227
0.004392240940691468
-0.006688504303618538
-0.005692228419333707
0.02049879472573934
0.006089917102587907
0.010572618795732503
-0.012266626804250953
-0.002846548609008185
0.004243476239123339
-0.02884328356814863
-0.004740758870313215
0.004605589940380104
7.297252196911755E-4
0.0035793885408414265
0.028903286248222314
0.0011485243146085178
-0.0010697761782090774
-0.017026913662701523
0.013902199930813847
-8.610087965673571E-4
0.003703758319373293
0.0055583773128162345
0.0049330448587701844
-0.01077670366709766
-0.005026040365808268
-0.011643611905127423
-0.013420833360642904
-0.003023105695529993
0.007685681761626165
-0.002228912485167829
0.013039090779002803
-0.024799474290240896
0.010385479757471776
-0.019438065476174715
0.024262686658027027
-0.010907103819916268
0.02151551479729219
-0.012465681032820034
-0.039989047509936954
0.011197198758528808
-0.021101398212651206
0.009529718803346604
-0.01935241816683883
0.026995143973725343
0.00511951767263568
-0.019054058831410044
0.013140481615681675
-0.03486118190809209
0.02227313055973786
-0.01322356139539256
0.01300181706604675
0.014980023306193281
-0.014416225820853529
-0.014291975084199895
-0.013780629506993734
-0.003752396515896317
0.034664562846654735
-0.04209911272102592
-0.015218210724640496
0.2666818473008764
-0.34654710732874944
2.4374027551277133
-0.025159703716270812
8.76291408214741E-4
-0.0262158852424908
0.012760274057119464
-0.022997477004112997
-0.028179026070668658
0.008433816196069515
0.01673848467999157
0.0021687788722532693
0.011162810667122432
0.011813704218021283
0.0015781526015219878
-0.019526696564811853
-0.027701792093795613
0.013329620116940024
-0.008957008056631993
0.003040717753046318
0.011216696706071245
-0.0017855693847082313
-0.019650631944018768
0.013011298394032582
0.006030348821839126
0.025028653084110765
0.01155931519424716
-0.012779421137697002
-0.02665854396890638
0.004528540534939521
-0.00901932829161161
-0.026921979921341512
0.0026000731150526216
0.012630656436145409
-0.00469036845104976
0.020791906218725932
-0.010047760979251169
0.0017998495304199988
0.007245920547722971
0.006102980317097228
-0.010411008079301037
0.011909760945452843
-0.03909871130532147
0.0020377571610258292
-0.007303156648141303
0.023740280063737896
-0.0018501536828288284
-0.003430841038935723
-0.016410812561938954
-0.004452895219768837
-0.009250553948959812
0.01175426687012988
-0.007721822075789083
5.323223215999741E-4
0.004414535508484061
0.015130254913649756
-0.02342064051741486
0.007040952252267186
-0.017439331516383716
-0.008236198832761013
0.006573833052735012
0.030401459156784043
-0.008739193746329255
0.010135773243957646
-0.004110347068213942
-0.10538356217127855
0.048107402896864035
0.2040136491294565
-1.1021841066210927
-1.4268698453231543
0.221065142640789
0.03329332594144058
-0.037510544818638664
0.0025703975745341133
0.015454877702304508
0.025135595229732258
0.02537507065847246
-0.004707632376046267
-0.012285806659885122
-0.004292067035198417
-0.009050669788081776
-0.021884661338787924
0.006369081956958135
0.009478849318755495
-0.0063781288856190645
0.008036430979315893
0.015265739201029655
0.013136768796317397
-0.0022341603276099208
0.011799323180096528
-0.0015610731011149043
-0.00316530473124051
0.0035907857994484614
-0.003104302319659774
0.011043938705751766
-0.01209386880393145
0.002978831917391525
-0.0045891948140333455
0.006154067001367183
-0.017325924597134078
0.010687025446472743
0.026977749115888003
-0.012434702294293998
-0.006342205771134892
0.002712031278078883
0.023377916387778568
0.005805055381009873
0.018480446510989314
0.019873331338852586
0.010761540097344851
-0.001029301486289342
-2.6007126557408763E-4
-0.018456920386602755
-0.011718126555983161
0.008896788176895886
-0.010594029939451051
0.007016524554190818
-0.017646563874963966
0.0072147099841101195
-0.014473910946021275
0.016790802920822398
-0.002124519719522551
0.008521394061467426
-0.028600824360090687
-0.007289310901803802
0.014018754337278456
-0.009530153202671443
-7.705480441305944E-4
-0.0036278095376856105
-0.007613314866478416
0.02515165763881209
0.0303403758343708
-0.12798588929738297
0.4640872417706911
-0.18673219190307475
-0.02795652925022108
0.0362468613620074
-0.05876853773039897
0.03579757141973618
0.007741320023348111
0.00831782985623213
7.684476888870431E-4
-0.01922156898927099
-0.007355343956164301
0.017367964352743088
-0.0015048695072436662
0.001760127329717004
0.028260657094123353
0.0019897732979681088
0.005702676703786602
0.027769360171217443
0.014726503081068812
-0.0031665362878179355
0.002534040060708634
0.010143773040647105
0.014909307741556372
-0.012108597974359458
0.00786892082143852
0.012848253546785707
-0.009702476803666059
0.00622430076621483
-0.026982821682556633
-0.006043772145674246
0.19232619783191363
-0.040546361371676595
0.009720682403422819
-0.009015359855796124
-0.032366984398895404
0.009186315915792474
0.01643627290848875
-0.023752925250756965
0.008003521096136251
0.003985731690114742
0.0018593787588854702
-0.0016943916664955358
-0.032954615826559536
-0.009387609988341986
0.03461372196295927
-0.003250074247561508
-0.005266121118179003
-0.03760756091269259
-0.016943222161245216
0.011748661990951297
-0.004004975201369328
0.010498903772156003
-0.055054456888084705
0.09394920544359057
-0.022649759393771045
0.04939933238772112
0.025085422364729798
-0.03810717107860874
0.03544055443920565
0.10326107884590191
-0.44363334351829176
0.5572292112218287
-0.03981213388254143
0.03920878813587417
-0.10256088379611966
-0.08828832646161949
0.028148931122885894
-0.0881520248095983
-0.07288704503118207
-0.19179738508281982
0.12471318891689759
-0.11983814793110271
0.0638721793806741
0.0015310900565768289
0.0319537050515312
-0.061859548904902056
-0.04160177902261691
0.07705458627727055
-0.12509964920171324
0.09172523764133722
0.0034869145081728448
-0.012820961590276118
0.055006563007390166
-0.05884079233945956
-0.033323134606964566
0.05813713662063461
0.10902907093823952
-0.03376292619468111
0.03461154544481661
-0.06932686614191655
0.035227411013938205
-0.05757319771098403
0.023486054604868446
0.002720979817126129
0.07981951665351118
-0.3626684588731768
1.1929940603582323
-0.6899006712274809
0.20457284690747837
-0.019228473286239348
0.041311371599550395
-0.0033204654095664154
0.023466516371315558
0.03354184976436902
0.06526705265584286
0.02153847574685682
-0.03719135959785129
-0.03280600330172219
-0.034947205617102496
-0.014229978365892284
-0.011882522329216315
-0.014634162523032212
0.045957504597594415
0.015390162534516322
0.01568578399611949
-0.02429953008341355
0.024409098489483503
-0.010901598981576902
-0.008587615003104296
0.060500876124736
0.028631739098794254
-0.033545865840419783
-0.014880955090885883
0.02937796963017601
0.002770640576248677
0.03372001430994065
0.03133054897747657
0.02177233381263933
-0.015696672368837004
0.025914464112298006
-0.0835869974580715
-0.4378070965424829
0.6095170458279472
-0.131480259347755
0.2590548621600022
0.0679932790276701
-0.1066051617141726
0.009698199029431243
0.06723984675648917
0.013039438958536948
-0.10036313092146171
0.04851286714193204
0.016132970774153123
0.0523658543361942
0.1926999637225732
-0.04315638385924884
-6.555560005883053E-4
0.17450275111618266
-0.1360491541523109
0.014224756311944973
0.04125884469458648
0.07770418563676819
-0.21916229499488596
-0.09583927325363781
-0.23436785837395624
0.2913115089723283
0.05148659633881951
0.14704690790790903
-0.14631032989536452
0.07081405259715673
-0.061283725015353174
-0.19723932150847356
-0.12814283492030898
-0.09676476045527543
0.05153080706772645
-0.47023983557535237
0.7767005768244867
-0.06445207163058524
0.201172156600448
-0.08248688320807875
0.09997272531932952
-0.17158360351325683
-0.030046479031484608
-0.04713104924222289
0.048197802469590295
0.257405187807992
-0.22421548263279883
-0.07745375132461708
0.27919757597863654
-0.03019151486739942
4.884801781896361E-4
-0.2335639446901291
0.13168105366140131
-0.043824073375742754
0.03889672967988922
-0.0728028196631876
0.06597769695681499
-0.06694762777090353
0.034456747700965795
0.01943426088308707
0.028982315507721578
0.020941857900036845
-0.13563480648258608
0.06867973571152126
0.04940372470286887
0.016416997581454193
0.06752525087198992
-0.01704995834767442
0.02659247523705538
-0.20232803270534352
-0.21884437106810534
0.1403703510223551
0.07858548963720396
-0.05237060344975234
0.03656036828794103
-0.03238812824218235
0.016390465682122622
0.03175936300966568
0.01223801297867115
0.01845341131397399
-0.03143936523993164
-0.003000355454322423
-0.013114009395567568
0.010206011426746923
0.03095829549098745
-0.005221929359541026
0.01422292182269723
0.008224633194042354
-0.023256547582898197
-0.05723968459302347
0.010931189660231745
0.003746260809093925
-0.014041510083719663
0.006316343497679351
0.015215622095550739
-0.0029877255991400814
0.01671822259018959
0.014211544459764355
0.032055195359554395
-0.010008747914353605
-0.02064844010434071
0.051793928528556896
-0.38538691264334607
0.4516019266109555
0.039880634124336053
0.09226278236109507
-0.04667675968104993
-0.005646123864450382
-0.014953857306132235
0.015269056756029577
0.012270808241695741
-0.0287040999415906
-6.159935521053497E-4
-0.01596864072865658
0.017663599603742957
0.012806684737608782
0.021000153815967888
-0.026137970219553806
0.013575966726613311
0.0065503505226346265
0.009079086209489946
0.010251271430495711
-0.0038387373161055775
-5.47235500598188E-4
-0.003916598700326058
-0.011400014164019968
-0.012751667631067679
-0.00436970590910396
0.07277179456363192
-0.05569561356267769
0.016340486996025402
-0.001642138293470527
0.02881394171642094
-0.07511406585527591
0.08473408569978734
-0.6447789934522322
0.2933160108275793
0.14730720996300262
-0.004842936200928568
-0.03611039646665441
0.0018891767127667027
0.011781620663973242
-0.0031796996115174662
0.004156141572101788
0.008274580510735617
-0.005919634149974408
-0.006199345728611562
0.026984100644875445
0.026672669224915128
-0.014186383921961337
0.014146495139563744
-0.016287847802004034
0.010961436771425588
-0.0252185234605086
-0.01164307402014668
-0.009812415361047811
-7.125918487216817E-4
-0.02849818710107947
0.04941291366806341
-0.062471030674668825
0.043875739443979475
0.009420603975047657
0.03386671435133394
-0.027657107781476405
-0.062015046800395116
-0.26186046978592525
0.16105003720073988
0.060975899523144764
-0.05429846626728315
0.015222732848680046
-0.01555144167844641
0.02263996053039489
0.021808775582061478
-0.011389284770188836
0.0068084152363573625
-0.01966882078977665
0.024722594664979114
0.04087572732400814
-0.005005443209231734
-0.030883675586190422
-0.025433343223819068
0.01381282397080854
-0.025179601997568822
0.03841519722047046
-0.005953341995766227
0.0336522413612996
0.007308114817538201
-0.0032061876408792933
0.03934786101554997
-0.00123120067557074
-0.0019746853715258486
-0.012240513148635133
0.06585655787926395
-0.038870668350472815
-0.0035983121198689266
-0.005402415701947057
0.05681827518609277
-0.3833086121739619
1.04275401321573
-0.9087865314919503
0.2618022465589479
-0.012029134607866296
-0.021985218479706244
0.00832018436398842
0.020921105913576647
-0.014580154229023416
0.008611150595589524
0.009967889012544619
0.0159941054894892
-0.009630885540334744
-0.007838736698984185
0.006342480253601802
-0.017968426525016623
-0.04074013043052244
0.011443540538735704
0.015836255217121363
0.025101660313286596
0.0025004896159661056
-0.013082286977442278
-0.005997537396516921
0.0064849083118712495
0.014252763533690309
0.0025445780196625017
0.009066382042264636
-0.00945247109014748
0.004174883490513338
0.004826865879237555
-0.044595645813876775
-4.3723801605291546E-5
-0.006795309849602998
0.04052717908776475
-0.3611522556374536
1.0990756879854722
-0.6457302958623862
0.14780634864017345
-0.09381347852293682
0.01772114273778456
-0.014082369580224812
0.010569669709925329
0.004013108835208706
0.011426595429805238
0.0013433825492899301
-0.0031487171027742783
0.03084479415572526
-0.003188908134249373
-0.01261009157956847
0.012774188198685772
-0.013860828308857185
0.006556847112889688
0.008634467379756462
1.7068177514657779E-4
0.022322273057729224
0.007846036265687261
-0.014064701577537765
-0.016050399012496795
0.016963549388635164
-0.0032004639647551097
-0.00922061669585436
0.0049425620716319965
0.04951302773037079
0.03824629922302071
0.008484879979445428
0.02844094087042138
0.012917827351441924
-0.32031257381485145
-0.09583730503803799
0.12261782544547671
0.1095415134551947
-0.04029690404028694
0.0030592047773662923
-0.011350007039133971
-0.008706449713027574
-0.026702079073354163
0.014605531496835805
0.002945582504700086
-0.009407989139505281
0.018028569428189464
0.01557945388813653
-0.005389559071969936
0.008966008596177188
-0.029129160221732765
0.019399011442702466
-0.009053044865348824
-0.025020740153624328
-0.0047481115626319265
0.011471078726957892
-0.010017619794571248
-9.041981857211764E-4
0.004380559048096068
0.010809071455906052
-0.019293055745052003
-0.0017550763476629622
0.060141391818307285
-0.027424275791017586
-0.03562862819549331
0.016321609900056572
0.002481483875834904
-0.29641418727232505
-0.9961267663537792
-1.44541327611012
0.3677674706578039
-0.05511526148425254
0.020442198031835564
0.013200625651108001
-0.02075312214341664
0.0011344195922608352
-0.0011248587350510403
-0.0031436885373998906
-0.02019624411561244
0.028380130629199342
-0.01989600806933012
-0.013160138347764444
-0.023993086484781774
0.016120269856793032
0.0015368190310779267
-0.019022779959130723
0.007685609182397628
-0.010735351208441858
-0.01744900702730803
0.0033069011246229865
-0.05700217030349648
0.013054772384294186
-0.019967791459061014
-0.01937774581744149
0.003793389344092797
0.03466546147223169
-0.001370085710292769
-0.020477944485922456
-0.022001996228801272
0.03583980002221832
-0.3383150940443466
-0.3085012501009782
-0.051182221024789296
0.266625611218909
0.004152900577746754
0.034760368520232565
0.014661929465794976
-0.044719023489875
0.04487420580950741
-0.010776008603345506
-0.011867787706106175
-0.0013413580247203412
-0.03250231074348225
0.022886045832211377
-0.010157682627872484
-0.005380962245458379
-0.02583405607611057
0.038985652535340524
-0.01785699922616791
0.03332753835767723
-0.05478328801007085
0.03210296031448572
0.020348495084314445
-0.04175352912938912
0.0035015001983865132
0.02117770345313321
0.002471546649631118
-0.004386373393115789
-0.02219254512749696
-0.043030409067435646
0.016199837765755558
-0.0344115012665164
0.042787529990269434
-0.29483865624164035
0.8703553068750827
1.255940419601067
0.3603971500619352
-0.07957274249535969
-0.02878104226102009
0.06320504578799396
-0.05306895022713425
0.05791028432815361
0.008104895460001323
-0.010833948281422857
0.001665826137005253
0.00866026375641361
0.010989862312957538
0.03830094968009261
-0.02528475764111531
0.033969180272604926
0.003328305967834698
0.026439965401711098
-0.0014644351113032722
0.03055306398630285
0.04701334914805229
0.0661213501416462
-0.016379222215324722
-0.030622036674800457
6.016337206443748E-4
-0.01869042658554067
-0.018637720489439798
-0.003697034540199276
-0.05698371620309503
0.04803293816272912
-0.03400187310582875
0.05051815111638536
-0.18654597399918119
0.9453501458960952
-0.8874575222993853
0.2069078511550288
0.015454554833069067
0.01038132993456229
-0.045556248383424924
0.015182531281839998
-0.006581657665759438
0.04251706625026991
-0.013710982606299445
-0.0016187739510653658
0.0010226808043967035
0.006058940008283253
0.04017417298502457
0.03244467634931974
-0.1365378673315747
-0.07113633809750608
-0.00927141240802463
0.057143094340849854
-0.07021582126753467
-0.012108293096527962
0.020336695017370857
-0.017425463768593594
0.01935128625485604
-0.02250744468721142
-0.01997814434338812
0.005191753845488756
-0.04101484742648314
-0.08312890087481561
-0.06756192079323634
-0.36993580216173794
-1.5940953968363758
0.6365892137698926
-0.02302428154997503
0.23672461021917285
-0.2697598828419632
-0.11171151537669963
0.03287064865766338
8.297806327645929E-4
0.017292572104289375
-0.04141990833061797
0.0654873235781406
0.16156751927650773
0.08906850902508504
0.07193700036777755
0.06715108088366817
-0.07296517180943973
-0.08210331451916981
1.032282033739016
-0.8403966735663612
0.024232449843626255
0.0509575524098448
-0.023909197678638743
-0.07076531084636899
-0.012198009237780548
-0.08054256251657048
0.052342097322347014
0.05545578109982696
-0.011986370886018253
-0.002038356720472325
0.02530498823076889
-0.04720427083486484
-0.03241014481781892
0.14107790299940545
0.03397714413854905
-0.2648687966896464
1.8797902415214087
0.12822155752171868
-0.14609938883444717
0.01725061099387383
-0.015932979473481546
0.06470009403436339
0.0226759419460493
0.1546697101563118
0.20290195996648536
-0.34463213051540453
-0.16475186773190376
0.06333912500179405
-0.09824769618206157
0.14293663613427987
0.25575186945496486
-0.2746571894539266
-0.37184929740992834
1.5201112267568435
-0.3065350968000943
-0.018708942396682932
-0.024402866487673813
0.030135989834254792
-0.00675053161819214
0.047396529187634394
0.028299884201178474
-0.009591222831890484
0.10824895285630282
0.0158322761222136
-0.006313211867354951
-0.05659450758807261
-0.16599130607562845
0.16716854759572147
0.0011214565468114918
-0.055359848084107766
1.469877428331034
0.22466055673226643
-0.1023149883705305
-0.013798024238945716
-0.016653371353896843
0.04787401433350634
0.013803273029795227
-0.03466489970991006
0.01747726335612272
-0.030274558388933333
-0.013705638726030665
-0.005794888153092356
-0.0025257543394434923
-0.0631748565109788
-0.0958749349142524
-0.033426871943796815
-0.32036938853580155
-1.76986627451841
0.5783393375329786
-0.029857922189768828
0.0031353929458247595
-0.014722374360302388
0.03687393418193606
-0.06780725285518158
-0.019108919539121895
-0.005514697656182128
0.010051145436942216
0.019167204393405548
-0.037837587790962676
0.11907812299036255
-0.08703687141632767
-0.050389191118258535
0.09888938311165123
-1.9313731483095653
0.3528848668096416
-0.045675064977116916
-0.0012520805163325419
0.018730408627339087
0.08955131446152181
-0.07560183942663129
0.011900168894905767
0.05294081203881505
-0.0011615371916111061
-0.014031475789035096
0.12533347951311236
-0.06903566554591709
-0.04294767249677495
-0.1171254453724371
-1.969331511111775
0.4745692468160624
-0.04706546064837147
-0.012726976107067259
-0.014587611956883684
0.008331955856985977
-0.11553816890730462
0.015831588136581635
0.01718518234887101
-0.020730912318839008
-0.028070524843013797
0.015332589836462851
-0.026271887980655204
0.15251922083920352
0.010300188134763806
-0.14574340869676275
1.248830939691229
-1.2324106604056848
0.0943929201505889
-0.034637788820257344
0.03218166183369015
-0.0020164191056432704
0.03133130591291411
-0.07139030094380355
0.04343776378077136
0.005574651247122583
0.00518303693384396
-0.034629748461405006
0.013044306246979519
-0.06940754487116516
0.13455726508193092
-0.034189388679969256
-0.11390462044240425
1.5104951278953798
-0.8446979337961938
0.009302972265186685
0.010660907786348567
-0.006433746850596816
0.0036230654670702214
0.03228392511090373
-0.05905306343574895
0.034410006963480316
0.01609038558629535
0.03573259965267236
-0.00721029617986757
0.023553883207196452
-0.020415424986241507
-0.09147922014429136
-0.05546469447150523
-0.14320169688264675
-2.0005666000325424
0.5479510668635876
-0.06672039268867205
0.009775817086832825
0.018758374190028185
0.01214786174705752
-0.0750586705403618
0.014768536673467385
0.046017747944639975
-0.01910260732989813
0.00870011639349099
0.017537700154822193
-0.04562561735782139
0.15679764898463877
-6.15251747308386E-4
-0.10529049957115355
0.5075457811993993
-1.7711650589616337
0.10292799647233236
-0.015550314958847511
0.007127830761462839
-0.009443452015711382
0.02351382361600831
-0.09031759046751558
0.029424197147915415
-0.03511455925228052
-0.02085254895403582
-0.004364094162131224
-0.027151148466699353
0.005177193543538697
-0.022496004684809563
-0.006479479954217
-0.42119436345806405
-0.5089367062834317
0.5806937763282606
-0.04014715465526071
-7.729120519944857E-4
0.033278583487273236
0.010262020636526342
-0.014916933640852264
0.050905445491265244
0.04318074817815791
-0.025412785123743585
-0.03342251645404237
-0.01157558831705633
-0.01848443525133838
0.10302018392315179
-0.028326724021476377
-0.027019272646134188
0.833529519461511
-1.1226912090407861
0.05725735087400877
-0.049156551193252726
0.04950879577942059
0.00834794674725188
0.08857815016261347
-0.0771950584563052
0.012235533878931601
-0.009077410017872517
-0.050685517486907875
0.04814886008741436
0.03302007280483906
-0.05842324821310315
0.11838221306676133
0.005306492573161133
-0.2918197553740978
0.26439564980131003
0.8176549051023212
-0.15025176008271218
-0.008621808618602206
-0.005545166649658335
-0.024384319807939224
0.22463713509676453
-0.6230179242965604
0.04597463637237513
0.01014537964969375
0.03103308207147243
0.07082089941074385
-0.03453809778413647
-0.06645367116074509
-0.10410636529081727
0.4515972273759873
0.8252368870722814
-0.43917287399315375
-0.12092496758218238
0.1727296853151692
0.00205394753291073
0.15649546984284018
0.03337117880056828
-0.17497461452980276
-0.9764956999868688
0.305509192520778
0.11410229492729304
-0.2231997156868957
0.17996529390656443
-0.06331416291615558
0.0025487758673662783
0.1793763443355871
-0.33371245987485537
-1.1905533824386172
0.37622181434830493
0.14233887977120596
-0.6223149363592428
0.28648042849367206
-0.017954126405963503
0.11402734946705614
0.2467332230681911
0.9486024968333444
0.4044797784221544
-0.06989753658407333
0.36570065127320117
-0.22627231709220566
0.10893398877790969
-0.048459576973434296
0.10338161421316525
-0.2288639904104617
-1.5816677150763485
0.11928471174724352
0.17020973674217155
-0.3517139256574515
0.14961346873303616
-0.028103542671907608
-0.09007804026091064
-0.24437284000496137
0.6101096163254177
0.8056212165038696
-0.05323383469764594
-0.06261039935947064
0.06999909523146987
-0.009581080085489965
0.07792927995594721
-0.31285915356640137
0.26689479367847124
0.6391189164209305
-0.03854025075309071
-0.11527520257848203
0.07611720216862143
-0.07752275871215342
0.14598477523584824
0.1684547109487879
-1.1634510816652235
-0.06570158204375776
0.2385442483503349
-0.25822554367685163
0.10344713963209443
-0.041074662092293636
0.11229974300550104
-0.37259154144352824
-0.5935545721290477
0.36610452156025636
0.01828116692575308
-0.19398772292630304
0.11265340944303145
-0.01136361783538646
-0.12075135397037148
0.11460056650159829
0.9398691641596105
0.08697975823821831
-0.1055803421299828
0.2008894217514403
-0.19232306332257937
0.11256102391191729
-0.08791285248546069
0.22254880323270712
0.13696645092290546
-1.3106243878783077
-0.04874264694358637
0.2696005276120058
-0.34188916276362113
0.1628086243485768
-0.04597285697922428
0.22340727138157856
-0.496200377414088
0.6463988405009136
0.28152514830465203
0.08073955707508455
-0.3318349950605693
0.1406003770602239
-0.023765883403776916
-0.028443033881957985
-0.2690513156327313
1.2659169634905176
0.5522153260705706
0.011293578929380682
-0.1144799824082022
0.08271959902103751
0.006253083157427286
-0.10029169476076112
0.1397595500211513
0.4146018532556559
-0.38023969206909153
-0.020878024100082243
0.20379629312298467
-0.19451268622239556
0.0579426650022582
-0.06055063871501282
0.1661530606520178
-0.15526767870632854
-1.72474887968202
0.2566429202443188
-0.11043696292609653
-0.5663290500546926
0.6201321787321524
0.3854088452715248
-0.15315831458635404
-0.07585333612658388
0.9005252895990041
-1.1013647591806794
-0.02020014961971884
0.36195152365808364
-0.4732660299198363
0.12081623255630304
0.4890827044649441
0.018480851685151747
-0.2910966099529259
0.8897788290474267
-0.7944585907417122
-0.1313057735847484
0.24199667924090307
0.8415571045486671
-0.9814531414465584
0.1983313733143508
0.2269006910226564
-0.30714696423020693
-0.1034349471715619
0.5300506083773008
0.2665726425496304
-0.975921185717411
0.22490635088907596
0.3120495935456075
0.21748514358206755
-0.9077301107070049
0.2637182101505104
0.2947890660186418
0.024126029997051397
0.05884785293556786
-0.406844242979407
0.19603363875639196
0.17963899666885763
-0.745530984186993
0.14314183209129408
0.34571137397021806
0.1879798659491215
-0.9825632256934957
0.6534193349756079
0.024771007774894657
0.14822913093658502
-0.6724609514755661
0.8030318176742918
-0.24720118063541607
-0.0031095893821700277
0.4478254370140692
0.5439334665682383
-0.5339092093012823
-0.08181793986027364
0.21099225276855724
0.588554589916999
-0.8346744191311553
0.02510405177156773
-0.070946917677365
0.05933184754691122
-0.7899613181871277
0.13620298600021272
0.36782317932238134
0.6744088772120065
0.5836294212227118
-0.8844074027633604
0.123086112654813
0.39224629287375645
0.6283032335002245
0.9301870689042592
0.48267547280821554
0.2312539332185754
-0.1532650697750485
-0.6382754295865201
-0.6374602259079964
-0.7957552865866596
-0.7698354302568728
-0.7304032461267741
-0.7484412462534951
-0.774944590713643
-0.5473767116385101
-0.801103413084632
-0.5073764028039195
-0.5925332892254828
-0.5873114105212397
-0.3419550485409122
-0.4071944692380093
-0.3632091449154315
-0.1393200016993681
0.11703870724981197
-0.2583169205333754
0.2945592648107588
0.20815910283927302
0.24617885770294834
-2.7689131420321
-2.6602496392790917
-1.8609999487026099
-2.1851646722870868
-2.348933194532721
-2.1060938211084217
-0.8703956043138367
-0.42638825440344574
0.43803819579614756
0.6622818953788455
2.434319669529604
3.661954723892893
3.846879145684672
3.6728799186323684
2.573635762452932
1.2812541402320947
1.0633990200592522
1.4449744558200082
1.6709504513364206
2.4516130098515876
1.9029137314869398
0.9907064312005049
0.003764499646425508
-0.6727891518115616
-1.7030582292152197
-2.4762678311864605
-2.7189955325192114
-2.953056144255301
-3.8898656222989723
-3.02610296379191
-3.2178534769010207
-2.6745400950757308
